F-0-01,125,II,405,-81,-74,-76,-79,-78,-80,-78,-70,-60,-55,-58,-61,-59,-59,-58,-53,-53,-53,-50,-45,-35,-28,-17,-2,12,23,28,34,45,55,59,54,45,33,24,16,10,5,2,3,4,2,8,16,13,8,9,15,24,29,29,35,41,41,39,40,44,51,53,51,50,53,55,57,65,77,82,83,85,83,79,72,65,63,69,70,59,49,46,51,77,151,223,224,86,0,-14,8,24,25,22,21,18,17,16,12,16,24,22,14,13,15,7,0,0,4,2,-2,-1,1,9,23,29,27,26,45,65,75,76,67,54,35,16,6,0,-14,-29,-33,-28,-27,-32,-35,-41,-50,-51,-47,-44,-46,-51,-52,-48,-47,-41,-39,-44,-45,-45,-49,-53,-55,-56,-56,-54,-50,-42,-36,-39,-49,-59,-67,-75,-79,-81,-83,-84,-85,-86,-91,-95,-61,25,96,62,-43,-116,-125,-84,-58,-50,-47,-43,-38,-35,-35,-27,-12,-3,1,4,0,-2,0,4,7,10,14,23,27,26,23,31,49,58,56,55,67,74,74,68,55,44,38,31,21,16,17,19,21,20,21,26,29,28,26,27,30,32,31,33,37,35,30,27,25,25,30,34,30,27,27,27,28,27,29,34,38,36,34,40,51,59,56,46,33,23,15,9,8,10,5,2,0,-2,6,70,164,188,92,-14,-53,-35,-11,-5,-4,-1,-3,-9,-8,-5,-5,-6,-12,-19,-15,-4,1,-3,-11,-13,-16,-18,-14,-5,1,5,15,28,37,46,59,71,73,65,54,32,10,-2,-13,-18,-13,-7,-1,5,7,3,0,-4,-7,-8,-12,-18,-23,-23,-22,-27,-29,-33,-39,-35,-26,-24,-33,-42,-43,-27,-20,-17,-12,-9,-4,3,9,12,18,24,25,29,33,30,28,28,26,28,37,39,27,18,12,11,13,9,3,0,2,6,11,39,112,192,205,92,-4,-34,-18,0,9,14,16,2,-6,-7,-3,-2,-7,-10,-8,-7,-13,-15,-13,-7,-5,-9,-12,-13,-8,-4,0,12,25,36,50,59,60,64,68,62,48,29,8,-6,-11,-16,-22,-25,-29,-34,-30,-22,-17,-20,-24,-18,-13,-12,-15,-18,-13,-6,-5,-9,-12,-13,-13,-13,-11,-6,-5,-12,-7,-5,-11,-20,-28,-23,-14,-13,-12,-14,-15,-11,-12,-13,-12,-12,-10,-8,-7,-1,2,-3,-12,-19,-26,-32,-37,-43,-47,-46,-47,-49,-51,-48,-16,69,150,153,9,-69,-77,-43,-28,-26,-27,-29,-31,-34,-39,-40,-29,-17,-10,-16,-26,-34,-40,-41,-37,-34,-30,-26,-16,-2,6,14,26,44,64,74,78,85,103,115,111,101,92,84,73,66,66,67,64,67,77,80,74,76,82,82,85,90,87,86,89,88,86,88,86,83,90,95,93,88,89,98,101,96,94,97,93,87,82,78,77,83,78,70,66,60,42,25,19,9,0,-5,-6,-3,-4,-12,-25,-46,-73,-93,-98,-102,-112,-129,-143,-149,-158,-174,-175,-87,-37,-98,-222,-301,-310,-289,-278,-271,-277,-301,-319,-326,-329,-327,-321,-316,-313,-310,-306,-305,-304,-297,-291,-291,-292,-297,-290,-266,-241,-217,-193,-174,-152,-126,-103,-78,-60,-58,-61,-56,-55,-69,-79,-82,-81,-72,-58,-50,-45,-43,-51,-60,-62,-57,-49,-44,-48,-54,-52,-49,-50,-53,-53,-55,-64,-69,-60,-57,-63,-64,-53,-48,-42,-36,-32,-31,-28,-19,-12,-3,3,4,-9,-17,-18,-19,-26,-42,-57,-61,-58,-52,-48,-46,-16,65,136,104,-5,-83,-92,-63,-40,-24,-19,-18,-15,-8,0,3,4,3,5,3,-9,-23,-24,-14,-9,-3,0,5,13,19,27,37,46,57,67,74,86,97,98,91,85,73,56,37,17,5,4,10,15,15,16,15,9,2,-1,3,9,10,8,8,8,10,10,7,1,-3,-4,0,6,8,6,0,-10,-12,0,7,7,6,18,29,31,20,11,8,8,10,14,16,14,9,6,5,-1,-5,29,115,185,153,54,-18,-33,-12,4,7,6,7,10,11,11,13,14,12,7,6,6,8,16,22,23,23,28,37,46,55,66,73,80,83,85,88,92,97,98,88,75,56,33,16,9,6,0,-9,-15,-14,-10,-1,9,14,8,5,6,-3,-11,-12,-13,-11,-3,3,4,4,3,-1,-5,-8,0,14,21,28,37,41,41,41,43,49,59,56,51,54,56,51,42,28,18,12,7,2,-3,-8,-11,-10,-14,-18,15,103,168,128,12,-71,-83,-54,-44,-47,-51,-53,-48,-43,-42,-50,-51,-48,-50,-52,-51,-49,-45,-44,-52,-53,-45,-40,-35,-29,-20,-12,-11,-6,4,14,24,34,37,31,19,4,-9,-24,-42,-54,-61,-68,-73,-74,-58,-38,-24,-16,-6,3,10,14,19,26,31,31,33,36,38,36,30,28,30,31,32,25,9,-1,0,-4,-13,-15,2,20,34,40,40,39,38,33,29,22,12,7,5,4,3,0,8,24,27,16,7,2,-3,-9,-10,-12,-13,-4,1,-4,-12,0,60,151,178,86,-32,-76,-56,-34,-25,-22,-17,-7,-1,0,2,7,20,39,56,74,91,107,117,126,135,147,161,173,182,193,206,216,218,212,210,225,244,256,258,246,226,205,186,166,146,131,123,129,141,143,136,131,132,136,139,131,116,108,101,92,85,74,61,55,52,41,29,24,20,18,26,29,27,33,38,33,23,11,4,9,11,3,-4,-9,-18,-28,-35,-40,-44,-41,-38,-45,-52,-55,-57,-59,-60,-60,-61,-64,-65,-60,-58,-63,-72,-85,-93,-95,-99,-103,-106,-107,-105,-103,-114,-116,-41,57,85,0,-101,-135,-120,-103,-90,-80,-77,-80,-79,-72,-65,-60,-58,-54,-46,-40,-39,-44,-47,-39,-31,-32,-34,-34,-31,-22,-12,-1,12,24,34,47,59,66,70,71,61,47,31,19,13,1,-6,-3,-1,4,13,21,32,45,60,77,84,90,106,125,145,163,168,160,149,137,126,120,113,103,95,87,81,79,75,71,72,73,68,66,64,59,51,45,47,53,50,40,33,26,18,11,9,9,5,3,0,-6,-10,-9,-3,0,-16,-36,-45,-43,-49,-60,-62,-61,-60,-59,-63,-57,-11,79,125,53,-64,-126,-129,-104,-93,-89,-89,-89,-88,-85,-90,-99,-95,-85,-79,-72,-68,-67,-66,-64,-57,-49,-45,-38,-29,-17,0,20,39,65,89,104,114,125,133,133,133,126,108,88,71,65,66,68,65,63,69,75,78,76,75,76,77,80,83,86,87,88,91,95,98,102,106,109,112,112,106,98,92,88,82,80,78,71,60,49,41,37,39,43,39,36,43,45,37,33,28,18,11,3,-10,-13,-5,0,1,-11,-16,28,117,169,104,-14,-74,-75,-36,-24,-29,-50,-80,-113,-146,-171,-193,-219,-253,-291,-312,-317,-325,-336,-330,-322,-320,-305,-280,-260,-243,-224,-209,-189,-161,-136,-116,-95,-67,-44,-37,-36,-34,-35,-40,-50,-57,-53,-48,-46,-44,-40,-39,-35,-30,-27,-28,-24,-18,-19,-22,-17,-7,-3,1,5,8,19,32,34,31,33,35,39,46,47,35,22,10,9,28,31,20,18,25,27,21,8,-6,-8,0,11,20,13,5,15,24,27,35,81,173,207,110,-24,-91,-98,-95,-119,-142,-146,-146,-152,-155,-144,-124,-109,-98,-84,-64,-36,-4,15,18,11,18,35,43,46,59,82,109,136,160,186,218,241,247,243,236,221,192,160,134,104,72,44,12,-13,-22,-30,-56,-78,-82,-80,-81,-74,-66,-65,-68,-54,-48,-40,-19,1,10,16,25,27,26,35,51,67,77,81,88,102,112,118,121,122,135,161,179,175,164,159,155,149,145,137,135,137,133,132,131,142,203,296,320,205,81,32,44,68,78,69,53,46,53,55,43,37,33,21,-3,-33,-57,-70,-79,-105,-143,-172,-201,-236,-272,-323,-395,-466,-511,-531,-547,-567,-584,-599,-614,-632,-669,-722,-781,-838,-883,-914,-927,-919,-907,-905,-915,-919,-918,-921,-917,-900,-889,-885,-883,-886,-887,-881,-873,-858,-835,-808,-783,-754,-719,-694,-688,-677,-657,-643,-628,-603,-580,-561,-540,-524,-517,-502,-476,-446,-416,-396,-381,-361,-341,-325,-302,-271,-250,-238,-217,-186,-159,-141,-82,39,136,142,24,-27,-6,49,94,115,134,161,185,198,207,226,251,277,300,313,325,337,345,353,363,371,373,376,375,373,389,406,408,414,423,429,445,458,461,463,458,442,427,417,410,401,392,385,380,373,364,355,348,344,338,329,322,323,324,313,298,293,291,286,283,274,260,251,241,230,227,228,226,221,219,228,243,247,237,228,219,209,197,188,180,173,168,163,157,148,142,180,258,288,212,100,37,30,51,61,54,46,43,37,29,23,16,3,-6,-10,-22,-29,-28,-36,-38,-21,-17,-22,-21,-18,-14,-7,-1,7,16,25,30,34,36,31,19,8,-4,-27,-50,-62,-63,-62,-63,-64,-62,-62,-65,-64,-60,-63,-74,-78,-83,-91,-93,-89,-86,-83,-79,-78,-85,-87,-79,-74,-72,-70,-76,-89,-95,-87,-80,-88,-97,-108,-117,-121,-126,-120,-111,-109,-103,-95,-92,-90,-77,-31,56,117,67,-42,-112,-121,-93,-81,-84,-85,-80,-76,-65,-46,-30,-27,-35,-32,-26,-26,-23,-18,-14,-18,-20,-17,-13,-11,-5,7,16,17,26,41,52,64,73,69,57,42,27,12,0,-7,-1,4,2,3,8,14,17,15,14,13,8,0,-5,-6,-8,-12,-16,-19,-25,-31,-33,-34,-39,-48,-55,-56,-57,-66,-69,-65,-62,-61,-60,-55,-49,-44,-47,-51,-42,-25,-14,-17,-24,-24,-31,-50,-63,-60,-59,-67,-72,-73,-72,-68,-47,25,111,125,15,-73,-101,-84,-62,-57,-59,-61,-61,-60,-62,-55,-40,-27,-16,-14,-19,-21,-14,-10,-8,-4,-1,0,1,5,19,33,45,60,65,66,78,90,91,94,97,83,61,41,28,23,23,25,26,16,10,6,7,8,5,4,6,6,8,12,10,12,21,25,20,16,20,21,8,1,-4,-6,-3,-11,-13,-7,-2,-1,-5,-13,-17,-15,-17,-23,-27,-24,-22,-31,-34,-18,0,8,9,7,6,9,10,16,26,21,12,9,2,-12,-26,-36,-44,-51,-58,-64,-68,-70,-50,19,110,133,40,-59,-88,-65,-37,-29,-35,-42,-43,-29,-25,-33,-47,-55,-54,-53,-51,-45,-41,-33,-26,-28,-33,-37,-38,-25,-13,0,12,20,29,36,38,44,59,70,66,54,38,18,-3,-15,-18,-23,-21,-11,-5,-4,-7,-10,-7,3,8,3,1,0,4,7,2,0,2,6,8,1,-8,-2,7,2,-1,-1,1,4,5,3,1,2,1,5,15,16,10,8,4,3,5,9,12,14,11,6,7,9,7,6,8,10,16,17,6,0,-3,-7,-8,-11,-18,-19,-10,-12,-18,-21,20,107,168,123,10,-64,-75,-54,-38,-34,-45,-61,-71,-72,-73,-81,-86,-80,-70,-69,-71,-66,-63,-68,-70,-63,-59,-56,-48,-46,-51,-41,-22,-3,6,9,16,28,36,32,23,16,8,-2,-11,-17,-25,-32,-33,-36,-38,-41,-43,-45,-48,-41,-27,-24,-32,-36,-32,-30,-30,-30,-31,-35,-39,-44,-40,-21,-5,-1,0,1,-1,-2,0,-9,-17,-11,-8,-13,-16,-14,-12,-11,-12,-13,-14,-16,-18,-16,-18,-21,-14,-3,8,20,26,23,21,24,27,29,31,33,33,32,26,55,145,212,169,63,-12,-25,-5,3,0,-6,-7,0,-1,-2,8,10,6,7,5,-2,-13,-19,-20,-18,-20,-21,-17,-9,1,16,32,42,49,56,65,77,89,97,96,88,75,53,37,32,26,15,3,0,7,16,23,24,15,7,3,8,17,14,4,2,7,11,12,12,18,29,36,44,46,32,20,16,16,17,11,8,11,21,35,42,40,35,26,21,19,20,21,16,5,-5,-17,-26,-32,-40,-41,-40,-45,-44,-41,-48,-50,9,98,123,30,-70,-105,-93,-75,-71,-78,-82,-77,-78,-81,-82,-82,-84,-85,-81,-79,-78,-71,-59,-47,-45,-46,-33,-23,-18,-16,-12,-3,6,8,15,33,49,63,66,58,48,35,20,10,4,3,9,10,7,10,14,19,23,23,24,25,28,39,45,41,43,52,54,57,66,69,63,62,60,50,45,53,56,49,45,44,41,34,26,24,23,24,29,32,36,45,49,50,37,24,16,7,-5,-9,-7,-7,-9,-16,-23,-18,18,93,144,98,-8,-82,-92,-64,-58,-61,-61,-60,-58,-56,-55,-52,-45,-44,-51,-52,-57,-64,-65,-56,-52,-49,-46,-48,-50,-35,-23,-20,-15,-6,4,18,34,39,37,33,23,7,-2,-3,-8,-15,-14,-12,-7,0,1,-6,-5,0,-2,-9,-7,0,2,1,4,5,2,3,6,5,0,-4,-2,-1,-11,-13,-7,-6,-8,-9,-12,-14,-14,-13,-9,-2,5,9,7,0,-4,-5,-5,-6,-7,-9,-10,-4,7,12,7,2,1,0,-10,-22,-29,-32,-37,-38,-33,-32,-39,-29,31,122,147,60,-40,-82,-72,-56,-53,-56,-57,-56,-51,-45,-45,-45,-42,-42,-45,-44,-43,-41,-41,-43,-40,-33,-30,-30,-26,-18,-11,-3,8,21,36,50,59,73,87,84,72,50,34,31,21,9,7,6,5,3,0,-1,-3,0,4,5,2,1,5,4,-1,-3,0,0,3,9,10,2,-4,-5,-3,0,10,14,12,20,23,13,10,11,4,2,4,-2,-11,-10,-8,-7,-10,-15,-17,-17,-20,-21,-19,-22,-24,-24,-30,-34,-33,-35,-34,-29,-27,-23,-17,-12,-11,-31,-47,-56,-57,-52,-55,-56,-44,-39,-31,8,90,169,178,56,-33,-57,-41,-16,2,9,15,19,20,23,21,19,25,27,23,24,28,31,30,27,26,31,32,32,35,44,46,44,66,90,100,107,117,127,133,125,111,92,71,57,46,36,25,17,22,29,25,20,20,20,19,27,34,32,29,33,36,37,31,26,25,26,21,15,9,4,-2,-7,-8,-7,-5,-7,-10,-9,-10,-11,-11,-11,-12,-17,-19,-19,-24,-28,-28,-29,-32,-31,-33,-39,-39,-38,-53,-60,-57,-52,-50,-54,-55,-44,-39,-46,-56,-66,-77,-84,-86,-87,-88,-91,-90,-87,-87,-74,-12,84,119,43,-56,-93,-80,-55,-33,-22,-24,-29,-25,-16,-14,-18,-18,-20,-21,-18,-14,-10,-8,-4,-8,-16,-12,-8,-7,-1,7,19,33,48,63,73,77,86,97,103,102,93,79,67,62,59,53,51,55,56,51,47,46,43,35,30,32,41,51,52,37,29,28,30,31,30,26,23,17,10,9,19,25,17,3,-4,-1,6,8,3,-1,-1,1,4,4,1,4,9,12,8,0,6,21,24,19,12,6,2,0,-8,-14,4,72,146,153,16,-72,-87,-66,-44,-30,-27,-33,-44,-47,-43,-42,-40,-33,-28,-27,-33,-38,-34,-30,-34,-36,-24,-13,-1,11,13,12,15,23,34,43,48,55,71,88,80,58,42,25,7,-3,-9,-10,-6,-5,-9,-12,-11,-9,-7,-10,-17,-16,-14,-12,-4,0,-1,-3,-4,0,-3,-9,-10,-6,-7,-10,-11,-2,0,-7,-12,-8,-6,-9,-7,-4,-8,-12,-6,4,17,24,21,17,16,12,-2,-10,-8,-13,-17,-11,-7,-14,-18,6,78,153,162,44,-43,-65,-53,-38,-26,-21,-22,-24,-17,-13,-13,-5,4,9,15,23,28,32,33,27,32,40,40,45,55,58,57,56,63,81,98,108,118,125,119,105,92,77,59,45,36,27,25,29,27,21,23,26,24,21,16,12,16,20,18,15,10,5,3,0,1,3,-2,-5,-7,-10,-9,-8,-14,-16,-9,-5,-6,-14,-17,-10,-8,-15,-19,-14,-10,-13,-18,-19,-10,-9,-6,6,10,2,1,7,8,-2,-11,-18,-20,-16,-15,-24,-27,-26,-5,70,158,173,48,-52,-79,-64,-48,-39,-35,-30,-22,-16,-14,-20,-22,-22,-23,-20,-17,-23,-29,-28,-27,-25,-23,-24,-22,-16,-14,-10,4,18,26,39,55,63,64,62,60,48,28,14,10,9,8,11,13,7,3,7,9,5,3,10,15,13,10,17,26,24,21,20,24,25,22,25,33,37,38,40,49,62,66,58,56,66,72,76,85,94,101,113,123,120,116,123,132,135,135,134,139,147,149,150,152,156,160,161,167,180,185,181,184,192,195,195,194,190,182,162,127,100,88,81,76,64,56,61,53,36,76,141,143,-11,-125,-179,-198,-220,-258,-286,-293,-304,-332,-355,-362,-363,-367,-383,-403,-417,-424,-425,-432,-445,-447,-438,-445,-458,-453,-431,-410,-382,-339,-295,-258,-224,-191,-158,-140,-136,-129,-125,-134,-140,-138,-151,-168,-161,-138,-122,-111,-109,-113,-108,-99,-89,-77,-70,-64,-61,-58,-50,-58,-80,-87,-74,-68,-79,-91,-92,-93,-99,-101,-101,-103,-98,-94,-92,-89,-92,-93,-87,-82,-78,-73,-75,-84,-78,-62,-53,-49,-44,-43,-42,-35,-20,-7,-4,-13,-22,-18,-8,-2,4,9,10,17,20,19,35,94,184,218,147,50,7,15,38,55,56,43,50,66,74,75,75,77,78,71,66,77,87,83,77,71,65,66,71,74,72,68,78,94,99,101,112,127,138,140,131,120,109,94,78,62,50,39,33,30,24,20,17,17,18,11,6,3,4,5,0,2,14,17,2,-1,5,8,3,1,0,0,4,8,6,0,-6,-7,-2,3,1,-2,0,5,10,11,6,-1,-7,-6,-5,-12,-19,-17,-12,-16,-23,-26,-29,-18,42,138,167,82,-22,-59,-42,-16,-2,-1,-14,-18,-12,-10,-14,-15,-9,-8,-4,0,-3,-9,-11,-2,7,12,12,11,10,19,34,41,49,61,67,69,71,78,86,79,62,51,43,27,14,11,9,-2,-12,-6,1,-4,-17,-21,-16,-13,-17,-18,-6,3,7,10,21,30,31,30,34,42,46,50,52,45,42,52,56,51,47,51,59,62,61,60,55,58,67,68,67,72,78,89,103,112,106,89,78,77,78,73,71,79,87,85,83,87,86,106,180,258,264,121,28,6,9,3,-22,-58,-102,-175,-273,-386,-500,-593,-656,-696,-753,-814,-855,-908,-984,-1054,-1121,-1189,-1240,-1284,-1328,-1339,-1297,-1234,-1168,-1105,-1052,-1009,-968,-925,-873,-828,-800,-768,-731,-703,-679,-647,-604,-569,-541,-508,-479,-460,-441,-411,-384,-373,-364,-345,-329,-315,-293,-271,-251,-224,-197,-177,-162,-147,-130,-120,-115,-108,-97,-82,-60,-38,-24,-17,-11,3,20,23,9,16,27,30,30,35,42,35,20,7,4,29,60,81,101,124,144,165,188,201,202,200,197,199,196,175,160,159,167,166,159,147,160,232,327,352,257,144,91,87,98,96,91,79,68,63,62,62,50,32,21,17,19,22,23,20,12,6,7,3,-3,2,5,-8,-15,-21,-23,-2,16,24,34,40,23,10,13,0,-25,-37,-36,-35,-46,-54,-57,-51,-38,-32,-27,-15,-1,7,7,11,19,21,18,12,10,11,17,23,28,41,57,67,76,88,96,102,113,133,150,156,162,164,162,167,163,145,136,132,119,102,93,90,87,88,91,92,88,82,80,80,78,71,56,39,33,32,22,14,12,8,0,-4,32,129,203,163,43,-44,-61,-46,-37,-36