F-0-01,125,II,405,32,45,54,57,63,66,69,85,102,110,116,118,110,98,85,75,58,42,33,21,7,4,3,2,3,-2,-5,0,-1,-8,-16,-14,-8,-10,-14,-9,-4,-8,-4,6,8,-3,-8,-4,-9,-19,-20,-9,-6,-16,-21,-10,-3,-9,-13,-7,-2,-7,-8,-7,-10,-5,4,9,10,9,8,10,11,7,6,18,32,40,37,30,20,10,3,6,16,19,19,17,10,8,18,47,121,194,199,74,-6,-25,-13,0,5,8,12,8,0,-1,9,7,5,13,16,16,18,18,14,16,26,33,30,28,37,52,57,58,69,76,78,85,90,90,87,79,69,57,39,17,-1,-6,-5,-9,-16,-20,-15,-12,-17,-18,-14,-20,-22,-17,-14,-17,-24,-25,-22,-21,-16,-9,-4,-10,-27,-30,-18,-13,-17,-21,-19,-11,-8,-7,-2,0,-4,-5,3,5,-5,-6,0,-2,-4,3,5,-2,0,1,-6,-7,5,14,20,22,10,-5,-12,-7,-4,-8,-6,-4,-11,-14,-10,6,68,156,178,87,0,-31,-22,-6,2,3,4,8,8,10,14,21,28,29,21,23,28,30,31,33,37,39,47,56,53,46,50,65,81,90,96,102,107,117,119,105,90,70,48,31,18,10,11,12,12,8,6,12,13,11,14,12,9,10,15,17,12,11,9,4,8,11,0,-4,2,8,3,-3,-6,-13,-17,-17,-23,-34,-36,-24,-16,-20,-22,-13,-9,-17,-22,-21,-22,-23,-20,-21,-21,-18,-14,-12,-18,-19,-15,-18,-21,-20,-19,-20,-18,-8,-2,-4,-6,-10,-17,-22,-27,-24,-21,-23,-26,-30,-34,-26,14,96,162,163,45,-31,-49,-34,-22,-20,-25,-26,-14,-19,-28,-22,-9,-4,-12,-21,-18,-15,-21,-22,-11,-10,-15,-10,-5,-4,0,-1,-3,1,5,16,34,39,38,43,38,16,-6,-23,-35,-41,-44,-43,-41,-53,-58,-49,-44,-42,-41,-44,-45,-49,-55,-50,-46,-46,-36,-28,-33,-39,-32,-24,-25,-26,-24,-28,-32,-29,-26,-20,-13,-15,-16,-12,-7,3,8,7,8,7,0,-2,0,4,2,-1,-6,-8,-2,1,0,-1,0,1,-1,-5,-6,-1,1,-3,-8,-4,2,7,8,8,4,-5,-11,-16,-17,-12,-12,-11,-8,-9,-6,21,96,176,188,77,-8,-29,-16,-5,-4,-10,-4,0,-4,-7,-2,1,2,7,14,21,12,-2,-10,-2,16,22,18,22,27,31,36,45,61,73,76,83,92,97,100,94,83,76,61,41,33,28,21,14,8,6,13,18,17,11,2,1,6,9,10,7,16,23,13,6,12,18,20,20,23,25,17,14,13,9,8,12,16,13,8,12,15,10,7,4,-8,-14,-7,-5,-20,-35,-37,-37,-43,-42,-38,-37,-38,-40,-42,-39,-35,-36,-37,-28,-24,-23,-21,-17,-10,-4,-2,-7,-18,-25,-28,-29,-30,-31,-33,-32,-29,-21,25,119,171,115,11,-48,-57,-41,-22,-16,-20,-19,-17,-24,-27,-22,-21,-21,-14,-11,-11,-9,-5,-3,-6,-9,-2,8,11,10,14,27,37,44,56,66,69,76,85,87,74,56,43,34,18,4,2,4,1,-3,-5,0,4,1,-4,-5,5,6,-7,-8,3,1,-6,-9,-2,2,-2,-8,-9,-5,-4,-1,3,2,1,0,-4,0,6,5,2,5,11,8,2,-1,-1,-1,-4,0,12,17,15,6,0,-1,0,7,19,25,20,11,0,-8,-14,-15,-9,-1,3,4,-7,4,76,160,170,49,-34,-51,-32,-13,-6,-6,-7,-6,-5,-3,4,10,7,6,10,10,13,15,9,11,16,18,21,27,34,42,54,65,68,69,80,89,94,103,106,102,90,67,45,33,23,16,13,11,9,2,-6,-8,-9,-13,-5,5,6,-2,-3,0,-1,-5,-7,-1,1,-10,-15,-6,0,-2,-1,0,-7,-12,-3,0,-8,-1,8,2,-10,-15,-10,-6,-11,-22,-24,-16,-14,-23,-25,-16,-15,-20,-28,-22,-14,-19,-21,-15,-14,-17,-23,-28,-36,-44,-41,-40,-45,-37,-23,-22,-28,38,127,153,84,-8,-54,-56,-37,-32,-33,-38,-40,-30,-20,-18,-25,-29,-27,-23,-19,-15,-8,4,11,8,9,10,1,0,11,20,27,38,48,55,58,62,65,68,69,52,42,33,10,-7,-11,-14,-19,-18,-9,-4,-13,-18,-14,-5,2,4,3,0,-1,-2,-2,-1,-1,0,4,9,3,-3,0,5,6,1,-6,-11,-8,-6,-8,-1,7,5,7,9,3,0,0,5,11,12,9,3,-2,3,6,1,4,12,4,-6,0,11,4,-4,2,6,4,5,1,-2,0,9,15,15,16,11,-2,-11,-9,-8,-16,-21,-21,-19,-20,-19,7,84,166,175,51,-38,-60,-39,-19,-16,-17,-20,-21,-18,-16,-14,-12,-14,-20,-17,-9,-12,-19,-20,-17,-18,-20,-19,-16,-14,-13,-5,13,32,43,49,53,56,61,64,63,58,45,28,18,11,-1,-11,-12,-2,1,0,3,10,12,11,11,6,1,8,15,22,29,26,22,18,11,14,17,12,16,22,12,8,15,11,4,11,18,14,10,14,17,17,17,17,18,11,4,10,20,16,-1,-11,0,9,3,1,4,3,1,-2,-9,-16,-17,-4,0,-8,-12,-10,-11,-12,-5,0,5,1,-12,-15,-18,-35,-40,-27,-20,-24,-33,-34,7,92,172,180,51,-38,-54,-35,-24,-23,-24,-22,-20,-24,-31,-33,-28,-24,-23,-25,-23,-20,-22,-19,-12,-11,-16,-13,-10,-1,8,15,26,39,52,66,76,83,88,92,94,92,89,82,66,45,34,33,34,30,24,20,13,4,-1,-7,-8,-3,-1,-2,0,3,4,8,9,7,4,0,-1,-3,-11,-13,-3,0,-10,-16,-8,0,-1,-6,-1,7,8,3,2,5,6,0,-2,2,4,0,-9,-18,-16,-10,-13,-18,-16,-13,-14,-18,-25,-21,-9,-8,-14,-11,-14,-15,-18,-31,-35,-23,-15,-13,-13,-16,-17,8,81,163,173,45,-48,-71,-56,-38,-29,-21,-19,-23,-24,-26,-33,-30,-27,-30,-29,-25,-23,-24,-22,-16,-12,-10,-13,-8,1,4,4,7,19,32,40,52,61,71,80,75,58,48,36,24,19,13,5,0,-4,0,2,-2,-3,0,-1,0,1,4,13,16,6,5,15,10,7,10,13,18,19,11,12,9,1,0,4,11,12,2,-3,0,6,2,-3,-1,-2,-3,1,3,5,6,4,1,0,10,15,15,8,-1,-3,-6,-16,-19,-15,-17,-18,-15,-15,-7,48,140,165,69,-33,-68,-52,-28,-17,-15,-11,-5,-4,-11,-12,-13,-17,-18,-11,-9,-17,-21,-25,-29,-32,-35,-35,-31,-27,-21,-17,-12,1,13,14,20,36,49,56,51,36,23,14,1,-16,-32,-34,-26,-24,-34,-46,-48,-39,-35,-37,-48,-58,-60,-53,-51,-48,-44,-45,-50,-51,-44,-42,-54,-61,-51,-47,-54,-56,-55,-53,-51,-61,-69,-66,-63,-62,-62,-58,-48,-46,-52,-50,-43,-37,-34,-31,-25,-15,-4,3,8,10,11,15,26,44,55,57,55,50,45,43,45,50,56,60,57,51,50,71,132,218,240,140,42,9,14,24,37,45,38,31,38,48,49,41,40,49,57,58,59,64,62,57,59,65,69,77,80,79,89,99,103,115,133,143,144,147,159,162,143,131,128,117,97,87,87,80,69,71,73,62,56,52,46,45,40,30,28,39,41,30,28,30,18,14,13,8,0,-3,0,-2,-9,-10,-6,-5,-1,0,-6,-10,-7,-4,-4,-5,-7,-9,-10,-13,-19,-23,-17,-15,-30,-33,-30,-37,-44,-50,-56,-60,-66,-75,-78,-70,-64,-63,-66,-71,-81,-95,-102,-102,-101,-100,-99,-93,-90,-99,-101,-22,76,101,2,-96,-126,-109,-90,-82,-83,-80,-73,-70,-71,-73,-71,-64,-63,-75,-83,-82,-84,-93,-100,-101,-98,-94,-98,-99,-93,-92,-82,-61,-39,-18,3,27,56,88,107,108,95,85,72,64,67,68,57,45,42,41,40,37,32,36,42,36,30,35,49,66,75,78,81,85,98,108,110,115,130,142,139,134,133,137,143,140,134,128,124,116,105,103,106,92,80,80,75,62,48,38,29,18,7,-4,-12,-8,-4,-3,-9,-11,-7,-12,-26,-38,-49,-58,-64,-68,-73,-68,-62,-74,-85,-80,-52,28,123,140,28,-51,-64,-32,0,14,20,31,41,45,43,36,26,21,26,30,28,24,27,39,46,48,47,41,39,46,51,54,60,68,74,82,91,93,95,106,117,118,102,93,81,60,53,54,46,41,35,26,32,36,26,24,32,33,26,17,14,16,12,5,-2,-16,-23,-21,-24,-30,-31,-29,-31,-34,-35,-41,-49,-44,-35,-33,-30,-29,-35,-39,-38,-41,-50,-57,-55,-49,-41,-32,-31,-45,-61,-73,-76,-80,-87,-90,-90,-89,-91,-94,-93,-69,1,74,80,-48,-137,-151,-117,-99,-96,-99,-106,-111,-105,-96,-94,-102,-104,-99,-95,-96,-94,-89,-98,-107,-103,-97,-93,-85,-75,-69,-66,-56,-37,-26,-26,-21,-13,-9,-6,-4,-1,0,-24,-38,-29,-16,-7,3,15,19,12,7,7,7,3,0,7,22,37,49,60,67,68,66,74,78,66,63,82,100,108,106,109,118,121,116,113,108,105,100,89,84,83,77,73,73,75,70,63,59,49,34,31,39,40,30,16,3,-6,-16,-17,-12,-15,-19,-22,-29,-38,-39,24,114,150,76,-35,-92,-97,-76,-64,-60,-61,-62,-63,-63,-65,-69,-73,-80,-85,-88,-87,-76,-71,-72,-61,-45,-39,-39,-42,-43,-32,-25,-13,2,14,25,34,36,45,55,49,31,14,5,4,3,-2,-7,-13,-17,-20,-25,-26,-18,-12,-11,-13,-10,-5,0,5,6,3,7,13,15,13,9,11,12,6,4,6,5,8,12,11,12,13,4,-1,0,8,11,9,5,2,6,16,18,16,12,0,-6,-3,-2,-7,-5,-4,-8,-10,-7,0,7,14,15,-4,-25,-28,-19,-22,-28,-29,-27,-24,-29,-19,45,145,173,78,-22,-59,-54,-44,-42,-42,-32,-19,-10,-9,-17,-18,-16,-19,-23,-18,-14,-20,-21,-12,-17,-22,-19,-14,-13,-11,-3,0,6,19,30,43,58,63,66,70,69,60,46,32,22,14,11,12,12,11,13,16,16,14,13,11,7,14,22,20,14,8,6,10,21,27,30,31,22,14,17,19,14,7,4,15,24,14,6,9,11,12,12,10,9,15,16,3,-1,1,0,0,-3,-2,3,0,-10,-22,-25,-17,-15,-13,-5,-3,-8,-5,-3,-9,-14,-14,-21,-38,-47,-48,-49,-47,-36,-28,-30,-3,83,156,127,20,-59,-71,-53,-46,-49,-54,-55,-45,-42,-46,-52,-56,-50,-44,-43,-52,-56,-53,-51,-53,-52,-44,-41,-43,-37,-27,-18,-6,7,20,30,40,52,65,74,69,57,45,29,9,-9,-21,-16,-7,-5,-8,-4,0,-1,1,3,1,4,11,15,18,17,12,10,10,7,7,7,1,0,7,8,7,13,14,3,0,1,3,0,-4,-5,0,1,-3,-7,-9,-7,-2,-3,-5,-5,-5,-1,0,7,12,6,0,-3,-14,-25,-26,-22,-21,-23,-19,-22,-28,1,87,157,113,-1,-70,-75,-47,-32,-24,-15,-13,-22,-23,-17,-18,-14,-9,-12,-13,-3,-5,-14,-16,-8,-3,-7,-9,-5,-2,1,13,32,42,41,49,69,82,83,78,69,58,45,26,10,-4,-11,-3,0,-5,0,10,13,8,13,17,12,11,17,16,14,14,16,16,15,19,22,20,20,16,10,7,5,9,16,18,8,6,18,21,19,17,12,12,13,6,10,14,12,12,12,12,10,8,-3,-19,-23,-21,-26,-29,-23,-21,-26,-34,-48,-54,-17,67,126,77,-39,-113,-120,-94,-87,-89,-87,-90,-98,-94,-81,-78,-85,-86,-84,-88,-90,-91,-97,-91,-76,-73,-76,-74,-71,-68,-66,-58,-41,-25,-7,7,16,27,36,42,47,41,30,19,9,5,3,-2,-3,7,8,-2,-3,5,2,0,19,23,13,9,11,13,12,12,14,15,5,3,7,9,3,1,4,5,-1,1,6,2,-1,-2,0,7,10,3,-2,-4,-5,-4,-3,-7,-17,-19,-10,-16,-22,-18,-16,-21,-20,-15,-10,-9,-15,-26,-39,-48,-49,-44,-46,-51,-51,-52,-50,-58,-64,-13,78,129,79,-27,-96,-104,-84,-71,-66,-72,-74,-68,-70,-72,-55,-48,-49,-46,-40,-37,-39,-45,-52,-55,-52,-43,-39,-44,-41,-35,-31,-13,5,17,25,30,44,61,63,49,43,46,48,33,19,18,21,22,19,17,23,28,36,48,52,37,32,44,48,41,40,52,56,46,41,42,38,37,45,48,51,55,58,60,57,53,52,51,52,54,55,56,58,59,53,48,51,58,54,39,29,28,36,38,31,29,32,30,22,21,28,38,42,36,31,27,18,15,14,10,10,3,-3,1,2,3,43,134,205,161,39,-39,-48,-29,-22,-17,-18,-22,-20,-22,-30,-31,-20,-13,-14,-11,0,4,2,-4,-9,-9,-10,-10,-12,-19,-21,-16,-5,5,14,22,32,41,46,50,47,35,25,17,2,-12,-19,-16,-10,-8,-10,-16,-22,-23,-27,-30,-35,-47,-52,-49,-50,-54,-57,-58,-64,-73,-74,-70,-81,-86,-78,-71,-70,-75,-76,-71,-69,-65,-53,-46,-40,-28,-20,-13,1,12,15,19,25,26,25,22,20,19,17,21,25,26,27,25,18,5,-6,-15,-27,-34,-31,-36,-50,-54,-53,-57,-52,-6,80,120,47,-68,-125,-128,-104,-91,-90,-108,-120,-127,-129,-131,-135,-136,-121,-106,-105,-115,-114,-107,-94,-83,-70,-50,-39,-37,-33,-17,0,10,18,26,36,45,56,67,73,66,54,39,20,6,4,10,3,-12,-15,-13,-20,-22,-18,-14,-7,-12,-18,-14,-13,-21,-26,-28,-20,-17,-25,-26,-20,-31,-39,-40,-35,-34,-44,-49,-53,-56,-48,-44,-47,-44,-42,-49,-55,-56,-52,-47,-40,-34,-32,-33,-33,-42,-58,-62,-54,-52,-55,-50,-46,-42,-38,-25,47,149,168,52,-32,-49,-35,-22,-15,-10,-2,0,-2,0,3,7,16,25,26,31,45,54,56,62,70,76,80,86,90,86,85,101,125,140,144,147,154,165,173,175,169,157,141,131,123,117,113,107,99,92,90,92,89,83,76,72,78,80,64,40,26,24,26,16,3,-2,2,9,0,-12,-5,-3,-17,-20,-22,-24,-15,-3,0,-10,-16,-4,5,0,-1,4,9,11,12,12,10,10,15,17,13,6,-1,-7,-12,-22,-27,-16,-13,-25,-31,-37,-41,-16,62,149,162,41,-47,-69,-54,-44,-49,-59,-70,-75,-73,-65,-56,-46,-34,-28,-27,-26,-27,-26,-18,-16,-23,-24,-28,-35,-34,-30,-24,-14,-6,7,29,43,53,60,58,62,66,58,50,49,46,37,27,23,24,26,20,14,19,25,23,20,24,29,31,31,27,23,21,25,36,40,32,28,28,22,16,18,25,32,34,34,33,31,25,23,27,30,31,27,26,35,29,18,16,29,34,33,32,30,21,17,29,38,38,40,41,24,2,-2,3,4,-1,-2,7,2,-9,-10,47,134,181,118,3,-61,-68,-44,-35,-39,-46,-50,-52,-56,-60,-56,-53,-60,-63,-57,-54,-50,-49,-59,-61,-55,-55,-52,-48,-46,-45,-44,-40,-31,-21,-14,-7,4,23,33,28,14,0,-7,-11,-16,-16,-17,-19,-22,-27,-28,-17,-9,-11,-16,-14,-6,-4,-7,-8,-8,-10,-14,-9,-1,0,-5,0,1,-6,1,10,7,6,7,7,10,13,13,16,20,23,25,23,17,15,15,19,26,32,33,31,29,25,23,31,40,47,54,55,40,26,24,27,23,25,35,37,34,30,38,86,173,225,177,73,12,9,41,52,50,47,53,57,59,61,57,54,61,63,56,55,55,61,74,77,76,84,92,101,103,100,101,101,100,102,107,113,116,117,120,121,94,67,55,34,6,-4,-4,-8,-20,-27,-22,-21,-37,-45,-47,-44,-42,-49,-52,-50,-55,-62,-63,-60,-61,-63,-72,-81,-78,-76,-89,-90,-73,-77,-86,-87,-84,-87,-93,-97,-105,-110,-104,-96,-92,-90,-91,-96,-98,-87,-77,-70,-68,-82,-91,-88,-77,-71,-74,-77,-79,-84,-88,-90,-68,6,82,86,-40,-119,-132,-113,-95,-87,-89,-92,-92,-90,-89,-94,-93,-90,-86,-83,-87,-84,-76,-75,-77,-73,-71,-72,-62,-53,-52,-45,-30,-21,-18,-7,10,23,30,32,27,15,2,-9,-24,-38,-44,-44,-44,-43,-42,-40,-35,-30,-28,-29,-21,-8,-3,-7,-12,-7,3,4,-6,-4,5,12,8,2,0,-5,-9,-1,4,2,-1,-6,-7,0,6,4,3,14,18,25,32,37,53,66,59,45,41,34,19,7,1,0,8,11,10,6,11,57,142,177,107,3,-49,-52,-20,-13,-20,-25,-22,-20,-18,-13,-11,-16,-19,-14,-12,-14,-9,-7,-10,-4,4,8,12,12,15,24,32,39,51,69,83,88,91,96,98,89,73,53,30,16,5,-2,-6,-14,-19,-20,-23,-21,-18,-22,-24,-19,-13,-7,-6,-8,-3,9,19,11,2,11,16,9,11,14,8,10,14,11,9,12,21,22,10,7,9,5,6,8,1,1,-4,-14,-10,-1,0,-6,-10,-2,4,-2,-10,-9,-13,-21,-25,-30,-31,-30,-35,-42,-45,-47,-50,-30,46,130,138,12,-76,-95,-73,-54,-47,-46,-50,-51,-47,-50,-53,-52,-50,-52,-54,-54,-50,-42,-41,-55,-56,-40,-37,-41,-33,-22,-11,5,21,34,45,54,59,68,77,72,58,47,44,45,39,31,23,15,14,21,28,27,26,33,34,27,25,33,35,33,36,41,42,33,36,41,38,37,43,38,33,37,45,48,37,31,37,39,28,27,32,31,35,32,23,19,13,4,0,1,3,-8,-23,-28,-25,-27,-33,-36,-25,-17,-22,-24,-12,-5,-13,-28,-32,-37,-42,-40,-39,-46,-48,-51,-53,-47,-20,48,133,151,51,-50,-87,-73,-55,-47,-44,-46,-48,-40,-37,-45,-47,-46,-51,-56,-58,-56,-52,-56,-58,-57,-66,-69,-57,-52,-47,-36,-19,-4,-1,4,23,38,43,50,58,52,29,16,11,1,-3,1,4,-3,-11,-7,-4,-5,-5,-5,-1,7,11,5,1,9,17,18,21,22,20,26,35,28,17,16,28,29,19,24,31,27,26,35,37,34,34,33,29,33,38,35,29,24,19,18,27,32,22,13,12,17,29,40,41,23,4,-7,-8,-1,-1,0,2,-2,-9,-14,-10,32,122,176,121,14,-51,-60,-35,-18,-17,-20,-19,-21,-18,-16,-17,-10,-8,-14,-13,-10,-8,-10,-14,-13,-11,-13,-10,-8,-1,13,15,8,19,35,49,68,84,87,81,69,54,44,32,22,17,13,9,10,11,6,-3,-6,3,9,8,9,8,8,7,7,8,6,1,0,-2,-9,-13,-16,-15,-14,-25,-31,-34,-37,-35,-34,-43,-50,-52,-56,-59,-62,-67,-68,-66,-74,-77,-72,-79,-96,-112,-119,-117,-123,-134,-141,-145,-144,-142,-146,-131,-69,1,9,-109,-204,-234,-221,-204,-198,-203,-212,-223,-235,-241,-240,-243,-258,-274,-275,-272,-292,-310,-313,-310,-314,-315,-303,-281,-245,-192,-135,-89,-42,11,60,94,130,170,198,209,204,196,194,199,204,203,213,229,232,232,237,239,247,260,265,259,255,258,263,268,264,256,262,270,269,268,261,252,247,234,228,229,229,229,221,209,207,213,204,192,187,187,186,181,173,170,173,178,179,166,159,165,171,164,157,151,139,129,123,120,120,119,111,101,99,133,205,279,291,184,92,60,70,83,85,73,66,55,35,21,16,11,6,4,3,-4,-18,-21,-11,-5,1,17,31,45,60,65,76,97,110,117,127,131,128,123,114,95,73,47,17,-10,-33,-52,-69,-85,-100,-113,-122,-131,-141,-149,-153,-158,-166,-167,-166,-173,-176,-170,-156,-140,-132,-132,-131,-122,-115,-108,-96,-87,-86,-81,-66,-62,-56,-42,-39,-33,-15,-12,-25,-32,-41,-54,-61,-69,-84,-97,-105,-116,-126,-136,-142,-146,-158,-169,-172,-175,-182,-198,-221,-239,-244,-250,-261,-268,-276,-287,-289,-280,-266,-213,-132,-109,-164,-219,-229,-202,-187,-178,-163,-151,-147,-142,-138,-138,-130,-111,-98,-88,-72,-64,-60,-49,-34,-15,3,15,28,49,71,86,97,112,125,135,141,144,156,165,152,131,118,100,84,75,60,45,41,42,43,41,36,27,22,21,23,20,16,20,21,13,6,-1,-3,0,-3,-6,-3,-2,-6,-8,-9,-8,-11,-12,-10,-11,-12,-12,-8,-4,-4,0,6,12,19,15,9,16,27,30,29,25,20,17,20,25,31,28,15,-1,-20,-32,-28,-19,-10,0,4,-1,-3,28,112,210,231,119,24,1,18,33,37,40,43,39,30,22,21,21,15,24,40,35,23,21,26,32,37,41,46,45,37,26,22,31,38,36,30,28,41,56,66,75,70,52,39,38,40,39,41,48,55,62,59,50,47,54,58,55,49,51,59,61,53,56,68,75,70,56,48,47,39,31,22,8,-8,-21,-24,-22,-37,-50,-52,-53,-57,-67,-77,-82,-81,-79,-80,-78,-72,-68,-71,-75,-75,-75,-77,-69,-66,-71,-67,-60,-69,-72,-14,62,84,5,-99,-145,-125,-94,-85,-86,-87,-81,-77,-88,-97,-91,-88,-109,-124,-125,-123,-135,-147,-151,-156,-158,-157,-161,-166,-167,-169,-170,-156,-129,-101,-75,-44,-19,-6,0,5,6,-1,-7,-9,-7,-3,8,16,21,36,49,43,29,27,37,39,41,49,54,57,63,66,67,63,59,62,68,67,58,49,44,36,19,5,-3,-15,-18,-1,2,-4,-5,-10,-16,-12,-4,-2,-11,-12,2,9,1,-3,-6,-10,-6,2,5,7,2,-7,-10,28,118,199,200,53,-19,-25,-3,1,2,4,8,10,8,7,7,12,25,31,29,29,30,36,45,50,53,53,50,41,30,18,3,-2,-4,-8,-1,16,34,46,51,44,33,22,11,-1,-11,-12,-3,-4,-2,-1,-6,2,17,18,-4,-28,-38,-31,-24,-23,-19,-13,-9,-7,-7,-9,-3,3,-1,-3,12,18,13,12,11,0,-12,-17,-13,-7,-10,-12,-2,1,4,11,15,20,32,46,53,55,53,43,40,50,52,41,28,8,-12,-27,-30,-33,-47,-51,-44,-50,-70,-74,8,104,128,35,-57,-83,-62,-40,-30,-25,-19,-15,-20,-32,-37,-39,-39,-38,-49,-60,-66,-72,-88,-105,-111,-111,-109,-102,-87,-75,-70,-67,-62,-50,-31,-13,-4,8,25,39,43,31,18,15,9,0,-13,-25,-19,-2,3,6,7,-8,-37,-60,-64,-43,-21,-7,-2,-1,0,5,7,0,-3,-4,7,15,9,7,11,4,-2,-4,-1,7,15,12,7,6,12,15,9,8,11,12,19,25,26,21,15,14,18,12,6,8,14,18,11,-19,-57,-75,-85,-97,-99,-104,-124,-137,-131,-128,-148,-159,-135,-67,-26,-91,-221,-306,-318,-312,-311,-317,-324,-334,-343,-347,-343,-341,-342,-328,-299,-277,-253,-217,-191,-179,-162,-136,-108,-83,-60,-44,-33,-21,-14,-5,16,36,42,51,78,103,113,105,86,68,52,43,41,36,31,32,40,55,63,59,55,58,64,61,55,54,55,51,49,50,53,64,75,66,49,45,52,54,49,49,50,46,49,60,65,61,58,66,77,75,72,81,89,84,79,78,80,76,69,68,74,78,77,83,91,93,94,97,103,106,91,73,66,68,66,57,51,46,36,23,10,8,59,151,218,174,56,-18,-29,-21,-9,-3,-4,0,-1,-17,-36,-50,-56,-62,-64,-63,-57,-44,-33,-29,-25,-20,-19,-32,-37,-36,-31,-21,-11,0,18,27,23,22,30,24,6,-10,-19,-31,-50,-76,-96,-105,-109,-107,-103,-104,-107,-109,-106,-96,-90,-88,-85,-84,-75,-66,-70,-74,-73,-68,-65,-67,-68,-68,-70,-68,-67,-69,-58,-52,-59,-60,-41,-27,-26,-38,-32,-25,-24,-21,-20,-17,-7,-4,-5,2,13,18,14,4,-5,-15,-30,-43,-49,-48,-49,-54,-59,-66,-54,10,90,103,-8,-105,-141,-137,-129,-123,-117,-121,-137,-151,-155,-164,-175,-183,-193,-203,-212,-216,-213,-212,-215,-212,-199,-190,-181,-158,-132,-121,-109,-83,-53,-29,-8,15,36,49,57,64,67,60,54,48,47,60,64,55,61,82,90,85,84,93,98,99,103,104,101,101,100,99,99,100,104,109,102,95,99,100,95,90,94,101,94,89,95,99,97,94,94,98,106,112,113,109,104,94,83,82,87,80,75,76,74,68,65,98,179,253,258,129,46,34,66,84,91,92,90,87,91,100,104,106,110,113,112,115,117,108,105,121,125,116,102,88,77,72,68,66,69,71,68,66,68,68,70,66,45,22,5,-7,-18,-37,-57,-63,-66,-68,-67,-69,-76,-84,-86,-88,-97,-100,-99,-103,-102,-103,-109,-124,-136,-125,-109,-112,-114,-109,-112,-119,-126,-128,-115,-109,-116,-120,-123,-124,-114,-112,-125,-127,-118,-117,-120,-118,-115,-113,-105,-97,-99,-101,-104,-117,-134,-141,-132,-125,-129,-131,-125,-122,-123,-111,-57,34,94,50,-57,-119,-120,-87,-74,-64,-60,-55,-44,-40,-32,-12,-6,-9,-7,-8,-14,-11,0,7,0,-9,-14,-19,-24,-23,-14,-1,5,10,18,22,25,42,57,53,37,21,11,0,-10,-16,-20,-29,-34,-35,-33,-32,-24,-8,0,3,5,8,10,6,8,11,7,2,4,9,11,14,31,54,67,71,80,110,149,182,199,201,195,185,182,191,196,193,203,228,254,267,276,286,298,314,331,342,344,344,341,334,322,304,277,249,229,213,191,165,147,139,131,120,108,104,148,229,266,187,63,8,7,16,15,6,-6,-10,-9,-11,-18,-28,-34,-35,-32,-38,-47,-46,-49,-56,-57,-51,-53,-60,-62,-52,-43,-39,-34,-24,-16,-11,-3,11,19,14,5,1,-2,-16,-28,-31,-36,-43,-46,-40,-28,-25,-36,-42,-36,-32,-31,-26,-19,-16,-14,-13,-20,-16,-5,-2,-8,-10,-2,3,-5,-8,0,2,0,3,4,-8,-9,-2,2,8,9,4,4,5,10,12,8,5,4,10,12,6,0,0,3,9,11,8,3,0,1,-5,-23,-30,-24,-22,-30,-33,-30,-28,-17,38,127,155,78,-24,-76,-80,-46,-35,-43,-51,-52,-42,-40,-41,-34,-33,-38,-41,-45,-40,-32,-36,-39,-31,-28,-33,-34,-32,-27,-20,-11,0,15,27,32,41,53,65,67,59,50,43,36,27,21,18,16,11,6,1,0,14,17,6,4,11,16,22,23,13,11,16,17,21,28,26,21,25,27,20,19,23,18,12,11,15,19,16,14,21,25,19,16,25,33,31,36,40,19,1,5,8,-2,-4,4,7,-1,-6,0,25,95,165,167,35,-42,-60,-50,-34,-25,-24,-24,-23,-26,-28,-30,-34,-38,-40,-41,-49,-60,-68,-71,-71,-66,-60,-59,-65,-62,-51,-38,-24,-12,0,6,4,9,28,37,25,7,-2,-3,-2,-7,-11,-10,-11,-11,-10,-10,-7,-3,-6,-2,16,28,26,28,33,36,45,56,52,48,56,67,77,78,76,84,88,81,74,75,82,86,82,79,84,83,79,83,86,87,92,101,108,115,122,120,115,107,97,94,97,89,71,62,66,70,71,105,197,266,230,134,71,61,85,112,130,139,152,166,173,174,166,159,158,160,161,145,122,105,94,83,69,52,39,28,13,-2,-19,-45,-80,-108,-124,-138,-152,-171,-211,-268,-309,-333,-364,-427,-532,-660,-765,-851,-955,-1072,-1161,-1234,-1360,-1539,-1682,-1736,-1739,-1729,-1725,-1723,-1720,-1715,-1710,-1707,-1704,-1700,-1697,-1695,-1690,-1686,-1685,-1682,-1678,-1678,-1677,-1716,-1722,-935,26,411,381,367,374,375,376,363,333,279,207,142,87,42,-6,-70,-143,-213,-257,-288,-331,-378,-422,-445,-458,-481,-493,-467,-380,-271,-246,-335,-425,-453,-433,-401,-371,-356,-338,-309,-287,-267,-242,-212,-191,-179,-162,-144,-119,-107,-109,-108,-119,-135,-149,-166,-172,-168,-161,-157,-144,-123,-112,-107,-102,-94,-74,-61,-57,-56,-58,-55,-46,-38,-31,-22,-19,-22,-8,8,15,22,31,39,41,39,46,51,40,24,18,26,35,39,48,63,72,79,94,100,98,104,128,158,171,178,197,212,220,221,219,230,241,247,250,251,252,252,254,245,227,217,217,210,198,197,219,222,213,216,223,234,282,364,389,279,116,20,15,57,59,42,37,34,0,-64,-97,-71,-27,7,32,36,9,-7,-2,8,-17,-78,-121,-129,-116,-90,-75,-68,-45,-11,24,64,100,123,139,158,175,181,175,170,180,194,204,211,212,210,206,205,224,232,227,229,232,230,228,225,218,210,203,193,183,176,171,164,157,150,137,124,118,109,98,88,72,51,29,15,23,52,77,86,89,95,97,93,86,82,82,79,76,70,53,33,26,66,137,156,63,-27,-59,-45,-25,-10,-5,-15,-25,-32,-39,-40,-48,-59,-60,-56,-65,-75,-81,-85,-93,-99,-103,-108,-112,-117,-122,-116,-99,-82,-66,-44,-21,-1,8,11,19,24,20,17,4,-21,-29,-22,-20,-28,-29,-20,-12,-2,-1,-7,8,29,33,26,24,38,45,37,30,30,31,32,32,37,40,26,20,18,4,-7,-13,-18,-14,-8,-18,-47,-69,-72,-61,-57,-51,-44,-46,-53,-66,-88,-101,-103,-113,-125,-131,-138,-130,-109,-101,-102,-62,-3,4,-118,-227,-266,-241,-211,-203,-200,-198,-197,-193,-182,-172,-168,-172,-185,-194,-194,-198,-210,-217,-211,-208,-221,-233,-238,-236,-224,-206,-187,-159,-119,-90,-84,-81,-59,-27,0,6,-4,-1,7,10,19,34,42,44,51,56,57,56,48,43,45,42,35,28,26,34,38,38,33,20,10,6,5,13,23,34,37,32,29,34,42,44,37,41,49,46,41,44,46,41,46,55,56,45,44,51,54,51,45,39,26,6,-9,-22,-38,-61,-76,-78,-82,-88,-64,11,96,108,-26,-123,-143,-127,-107,-90,-88,-92,-81,-68,-62,-61,-61,-51,-40,-38,-38,-30,-13,-2,-6,-10,-3,9,19,27,37,43,54,70,87,101,113,132,151,155,142,117,84,55,24,2,1,11,6,2,12,20,20,27,33,31,27,29,37,40,46,52,53,60,73,76,73,74,76,81,87,88,86,95,108,110,94,85,87,91,97,107,111,105,96,87,79,74,76,81,77,75,79,55,32,31,35,20,0,-15,-9,-1,-4,-6,-5,-7,0,46,143,208,148,25,-38,-39,-13,-4,3,4,0,0,-11,-23,-29,-39,-47,-53,-56,-51,-48,-47,-46,-60,-68,-59,-50,-52,-64,-74,-75,-55,-34,-13,11,32,43,59,72,69,63,54,43,38,34,32,32,22,16,24,27,21,19,13,10,18,20,2,-16,-24,-24,-25,-27,-33,-40,-48,-62,-75,-84,-91,-95,-95,-90,-84,-92,-112,-122,-125,-130,-131,-129,-135,-142,-144,-150,-169,-189,-197,-195,-197,-204,-211,-219,-221,-226,-211,-141,-62,-52,-183,-271,-283,-256,-236,-213,-198,-197,-202,-196,-184,-176,-173,-167,-154,-135,-124,-121,-114,-105,-94,-80,-70,-66,-64,-55,-45,-44,-46,-24,1,17,24,27,30,40,54,56,46,42,41,39,36,30,18,13,20,23,20,20,19,16,15,8,0,2,3,-1,0,0,0,-3,-17,-35,-45,-54,-64,-67,-68,-74,-77,-70,-63,-64,-65,-57,-49,-43,-42,-47,-47,-49,-54,-55,-55,-55,-57,-53,-47,-35,22,111,136,49,-56,-95,-73,-47,-39,-39,-37,-25,-19,-20,-14,-13,-19,-24,-25,-22,-16,-6,-2,-6,-3,7,20,17,7,6,9,15,24,30,46,72,99,109,105,104,112,103,84,73,68,65,61,51,46,52,53,50,48,43,39,40,45,51,52,41,38,50,53,47,50,54,49,43,40,30,23,26,25,21,24,27,21,13,16,20,17,14,10,8,15,16,-3,-17,-24,-32,-46,-57,-55,-53,-68,-71,-63,-61,-43,19,114,150,76,-32,-83,-84,-60,-42,-33,-45,-52,-42,-40,-56,-59,-56,-48,-40,-43,-47,-42,-37,-33,-24,-21,-25,-24,-18,-12,-8,-5,7,28,52,76,88,93,101,107,101,90,80,71,65,62,60,63,66,70,74,70,63,59,61,59,51,46,48,49,46,38,27,25,27,26,21,19,23,25,10,6,7,9,21,29,20,9,8,22,25,6,-4,-1,5,7,1,-9,-32,-46,-37,-31,-41,-53,-57,-61,-74,-87,-84,-79,-80,-79,-90,-103,-91,-37,51,107,49,-65,-122,-124,-97,-81,-75,-76,-77,-65,-52,-49,-60,-62,-48,-41,-42,-37,-27,-24,-25,-18,-9,-7,-5,1,9,14,10,8,21,37,49,66,88,100,97,92,87,80,65,48,45,54,56,62,68,64,56,55,57,61,68,70,66,69,77,81,81,83,81,67,62,70,75,74,75,76,74,73,71,64,57,56,64,65,58,51,50,56,55,54,58,60,57,54,57,61,50,26,9,-12,-39,-46,-36,-33,-40,-42,-26,-15,-18,-19,59,149,164,48,-37,-59,-48,-37,-35,-36,-38,-48,-58,-73,-97,-122,-145,-159,-164,-176,-197,-210,-211,-205,-198,-190,-186,-177,-164,-150,-136,-124,-111,-90,-68,-45,-22,-1,13,25,29,30,31,29,25,26,30,39,48,43,32,31,34,12,-2,-3,8,21,29,30,31,23,2,-12,-14,1,7,5,6,6,3,6,10,10,11,1,-8,0,4,-1,-2,-3,-8,-10,-16,-35,-56,-72,-98,-133,-183,-266,-344,-381,-389,-359,-290,-272,-391,-510,-559,-560,-519,-492,-485,-480,-468,-454,-437,-415,-394,-379,-373,-369,-364,-359,-346,-321,-295,-275,-254,-232,-214,-197,-178,-162,-145,-120,-92,-69,-49,-29,-13,-5,-3,0,3,0,-3,-8,-5,0,-3,-7,-6,-5,-7,-3,-4,-5,4,20,25,22,21,19,7,-7,-13,-13,-18,-26,-34,-35,-27,-25,-42,-52,-45,-39,-43,-44,-41,-50,-46,-34,-31,-39,-52,-65,-80,-88,-81,-79,-92,-94,-90,-92,-93,-67,7,76,45,-61,-135,-143,-113,-103,-105,-102,-94,-84,-82,-85,-79,-70,-67,-70,-71,-67,-59,-50,-48,-46,-42,-41,-42,-43,-43,-38,-28,-11,5,19,28,34,44,54,55,58,66,61,56,60,62,59,57,58,60,62,65,67,67,72,80,83,81,80,86,83,73,71,75,76,67,59,53,51,55,60,66,67,55,57,59,60,63,58,55,56,52,48,47,50,51,40,36,45,48,41,33,26,18,7,2,0,-5,-6,8,11,1,15,78,168,194,101,-3,-42,-35,-13,5,1,-8,-9,-6,-6,-2,1,0,3,10,7,0,-1,0,1,2,8,14,15,16,24,34,38,40,53,73,85,93,103,111,109,99,90,83,72,61,58,61,66,68,66,63,59,62,69,71,62,63,67,69,68,62,57,57,50,41,46,47,9,-19,-23,-14,-11,-6,-2,-6,-8,0,6,11,16,18,13,7,4,4,8,12,7,0,-9,-20,-23,-20,-15,-14,-23,-32,-34,-34,-40,-47,-46,-41,-39,-36,-39,-32,29,130,168,88,-25,-72,-62,-47,-41,-39,-33,-31,-40,-36,-27,-25,-24,-29,-34,-31,-28,-27,-25,-27,-20,-9,-6,0,8,9,10,11,18,34,49,60,69,89,112,116,99,83,68,63,63,59,53,50,51,45,38,37,48,45,41,46,48,43,42,40,39,41,43,40,31,23,27,33,34,26,27,33,35,28,20,16,18,19,18,17,21,26,25,21,14,10,9,7,9,14,14,12,6,-9,-21,-25,-26,-33,-40,-35,-32,-39,-41,-31,-2,71,130,77,-35,-96,-99,-69,-57,-59,-62,-63,-71,-81,-82,-77,-80,-84,-84,-87,-90,-84,-79,-82,-83,-72,-70,-74,-71,-58,-42,-40,-45,-35,-27,-21,-5,7,15,28,36,28,10,-4,-6,-5,-11,-14,-9,-6,-8,-5,-4,-2,4,6,1,-2,2,6,2,4,10,11,7,-2,-11,-4,7,9,4,8,13,7,0,-1,4,10,9,8,19,35,37,23,16,13,7,-3,-13,-25,-34,-32,-26,-21,-24,-34,-36,-7,63,132,133,2,-70,-81,-60,-42,-40,-47,-40,-37,-40,-41,-41,-35,-27,-26,-35,-32,-29,-33,-41,-39,-35,-36,-31,-25,-28,-29,-19,-3,2,3,14,29,37,43,44,32,18,7,-3,-17,-22,-17,-16,-24,-26,-21,-13,-12,-17,-15,-5,-1,-7,-8,0,2,0,-4,-7,-9,-11,-9,-3,3,5,-2,-3,-3,-7,-1,8,10,2,4,13,15,12,21,29,36,47,48,29,21,13,5,-1,-6,-3,-1,-5,-5,-6,20,103,184,186,42,-37,-46,-21,-8,-6,-11,-9,-7,-11,-13,-12,-8,-4,-3,-11,-18,-20,-18,-16,-15,-13,-12,-13,-13,-10,5,18,20,28,35,36,47,59,62,57,51,42,32,27,19,4,-3,-3,-4,5,13,7,2,6,11,16,17,3,1,22,29,24,23,27,31,25,16,20,26,24,16,8,3,5,14,19,16,14,17,18,10,7,11,17,17,14,12,16,22,19,17,28,31,28,24,18,9,-1,-9,-13,-18,-19,-17,-18,-20,-21,4,83,166,176,51,-43,-61,-40,-31,-35,-38,-32,-28,-30,-32,-28,-30,-36,-36,-33,-28,-26,-30,-32,-26,-31,-34,-22,-15,-13,-8,-2,10,26,33,33,39,51,59,62,59,50,35,24,20,12,0,-3,1,3,-2,-7,-3,2,2,2,4,1,-3,-4,3,5,-5,-8,4,6,-4,-9,-8,-5,-3,-2,0,-1,-4,0,1,-7,-10,-1,-3,-4,0,-6,-8,2,4,-10,-15,-1,6,-4,-16,-17,9,19,15,8,0,-3,-8,-22,-35,-37,-37,-33,-30,-39,-51,-54,3,101,137,52,-66,-120,-110,-85,-72,-71,-78,-74,-69,-73,-81,-82,-68,-60,-58,-55,-54,-57,-55,-47,-40,-36,-35,-29,-21,-18,-9,5,15,24,34,46,59,67,71,74,71,61,46,31,24,20,15,13,12,11,13,8,7,21,31,29,21,23,25,20,22,20,9,0,1,7,8,-2,-10,-14,-9,-7,-13,-18,-25,-27,-17,-20,-26,-26,-28,-29,-20,-17,-22,-23,-16,-15,-13,-3,0,-13,-34,-44,-42,-40,-45,-47,-44,-44,-45,-41,-19,54,124,88,-24,-95,-100,-65,-49,-46,-45,-39,-29,-24,-22,-23,-28,-30,-25,-20,-19,-24,-16,-2,-5,-10,-2,5,4,1,8,23,35,41,53,67,73,79,86,83,71,61,52,34,16,8,14,21,18,13,12,14,15,11,9,15,22,22,26,32,33,26,23,22,18,16,23,29,28,27,28,29,29,26,34,45,36,20,17,28,32,30,30,30,35,45,53,49,30,17,14,7,-3,-9,-14,-17,-13,-9,-9,4,67,149,161,35,-49,-65,-52,-37,-26,-22,-25,-31,-35,-36,-34,-30,-33,-43,-49,-43,-39,-46,-53,-49,-41,-37,-34,-28,-21,-16,-11,0,7,11,25,40,44,45,46,34,15,0,-5,-6,-11,-16,-12,-7,-10,-11,-8,-7,-13,-14,-7,-1,0,-3,1,5,3,-1,-6,-1,4,0,-1,2,2,0,-4,-10,-5,0,-4,-6,7,13,5,2,6,8,7,3,-1,0,4,11,13,0,-3,4,15,22,28,30,21,2,-7,-11,-20,-27,-23,-18,-21,-28,-32,-16,40,119,142,61,-47,-97,-89,-69,-63,-66,-69,-71,-74,-78,-77,-73,-75,-76,-71,-68,-64,-63,-70,-75,-69,-56,-50,-55,-60,-51,-35,-27,-23,-14,5,28,38,39,45,51,44,27,16,12,3,-7,-9,-6,-10,-13,-14,-9,2,7,2,1,7,8,6,4,5,5,8,13,10,2,-1,1,6,7,8,11,12,5,3,6,14,16,9,12,18,13,11,15,16,17,17,18,21,19,12,10,18,14,7,6,8,15,24,27,22,10,0,-1,-4,-12,-14,-5,0,-6,-11,-12,19,101,170,130,12,-65,-73,-46,-34,-33,-40,-52,-64,-69,-63,-54,-50,-51,-51,-53,-54,-52,-56,-58,-51,-45,-31,-13,-10,-17,-19,-12,-6,-5,0,20,45,55,56,50,43,35,20,0,-7,-8,-14,-20,-21,-15,-12,-9,-9,-13,-15,-13,-7,-3,-1,0,1,3,4,4,1,-2,0,1,-3,-7,-8,-7,-7,-10,-14,-11,-2,5,7,4,0,-2,4,9,5,2,1,0,-1,2,2,-1,-4,-5,-2,2,5,10,13,1,-20,-32,-35,-35,-31,-29,-32,-36,-36,-38,-29,18,104,138,60,-44,-84,-71,-47,-31,-27,-36,-38,-34,-29,-28,-34,-35,-26,-26,-22,-17,-20,-24,-20,-17,-20,-22,-17,-11,-1,9,16,27,40,44,51,65,73,75,74,67,56,48,40,33,25,14,4,3,6,6,8,8,13,18,12,8,13,15,11,7,3,2,13,12,10,14,11,3,-4,-6,0,9,4,-8,-9,1,2,-6,-8,2,10,11,6,9,13,13,14,19,23,24,11,1,-2,-4,-4,-10,-21,-22,-14,-21,-23,2,71,149,158,31,-47,-61,-49,-31,-20,-17,-16,-20,-23,-21,-17,-15,-25,-28,-16,-14,-16,-8,-7,-11,-5,-2,-3,0,3,7,22,41,45,43,49,58,68,76,73,66,59,47,36,29,17,7,11,13,10,10,13,17,19,13,7,7,6,7,11,11,9,8,10,9,7,9,10,8,8,12,16,14,6,-1,2,8,2,-5,-6,0,7,12,6,0,0,-2,-6,-7,-6,-9,-13,-9,-3,-4,-7,-2,5,9,11,6,-3,-9,-20,-29,-30,-31,-32,-25,-24,-32,-33,33,125,154,77,-26,-76,-77,-49,-44,-45,-36,-30,-35,-43,-48,-51,-53,-59,-61,-55,-52,-58,-61,-59,-54,-49,-48,-52,-54,-51,-44,-38,-29,-14,-4,6,20,31,36,37,28,11,-1,-6,-11,-14,-11,-9,-11,-10,-4,-2,-6,-8,-3,-1,-2,2,7,8,0,3,10,10,14,21,17,5,3,9,11,15,18,10,9,16,12,5,6,13,14,5,2,6,9,7,6,10,7,0,-2,5,9,4,1,0,0,0,0,4,14,18,17,20,15,2,-7,-15,-16,-6,-9,-20,-26,-29,-21,26,125,184,115,-5,-61,-62,-37,-33,-35,-37,-37,-31,-28,-31,-32,-19,-24,-34,-27,-18,-23,-33,-32,-25,-20,-21,-24,-18,-5,2,6,15,28,37,47,57,67,75,72,60,47,36,30,24,16,3,-2,-1,2,6,11,16,15,14,18,20,20,19,23,39,44,37,34,33,32,34,33,32,33,35,33,28,26,28,32,29,24,26,30,35,36,28,29,30,23,24,23,20,22,24,19,14,9,6,8,3,-12,-16,-3,3,0,0,1,-7,-25,-35,-33,-32,-41,-55,-67,-69,-57,-9,83,127,50,-53,-92,-84,-63,-50,-49,-51,-52,-44,-38,-35,-34,-42,-46,-39,-35,-34,-31,-32,-35,-41,-50,-60,-65,-65,-66,-69,-67,-57,-44,-26,-2,15,25,37,48,51,42,32,29,29,33,39,44,54,64,66,65,69,77,89,100,105,110,125,140,144,142,143,142,141,138,136,140,141,145,159,164,154,149,146,140,139,149,147,146,144,136,135,149,151,145,133,105,78,69,69,68,52,10,-33,-49,-59,-75,-76,-14,23,-26,-132,-195,-201,-174,-156,-150,-151,-146,-144,-149,-151,-151,-154,-154,-153,-154,-149,-140,-124,-108,-99,-89,-84,-103,-127,-146,-169,-188,-190,-160,-116,-78,-61,-55,-53,-59,-63,-74,-90,-105,-119,-123,-129,-147,-166,-186,-212,-234,-255,-279,-295,-302,-311,-323,-325,-321,-331,-344,-346,-340,-329,-304,-263,-219,-183,-145,-101,-58,-19,-6,-3,14,30,45,63,67,45,32,29,19,12,18,29,38,40,41,38,31,44,97,150,124,35,-33,-58,-65,-71,-79,-82,-69,-58,-60,-64,-72,-92,-113,-126,-136,-146,-161,-174,-176,-169,-167,-168,-161,-159,-171,-173,-172,-179,-187,-183,-164,-140,-114,-85,-65,-60,-57,-49,-37,-25,-13,2,11,15,25,43,53,48,45,55,63,55,32,18,9,-8,-21,-27,-35,-41,-39,-30,-19,-11,-2,7,13,16,28,38,39,50,71,85,95,108,116,114,109,111,113,104,111,122,114,109,123,150,204,256,230,139,77,70,92,108,123,125,111,104,100,94,81,68,65,59,48,51,57,54,53,69,79,81,88,103,120,134,144,150,162,179,192,201,208,218,228,220,202,192,187,178,169,163,159,150,141,137,128,116,99,82,73,61,45,40,38,35,45,50,22,-9,-30,-46,-58,-72,-87,-101,-121,-146,-171,-198,-220,-236,-248,-254,-265,-283,-288,-285,-284,-276,-258,-249,-249,-238,-235,-255,-260,-220,-137,-72,-98,-183,-235,-237,-203,-177,-157,-151,-148,-136,-121,-110,-105,-98,-81,-69,-57,-36,-17,-7,3,23,44,62,82,101,119,139,156,173,194,208,222,237,246,255,261,257,252,254,259,251,238,236,249,255,257,264,272,275,273,272,272,269,261,251,243,231,223,220,213,201,199,200,191,176,161,151,149,150,141,123,113,111,107,96,86,85,87,77,71,78,83,78,69,50,29,25,28,25,19,16,9,-7,-27,-37,-25,32,106,118,-14,-125,-156,-145,-140,-149,-161,-173,-189,-198,-197,-203,-218,-233,-247,-254,-264,-283,-306,-325,-331,-331,-335,-331,-316,-301,-289,-270,-244,-213,-181,-155,-145,-143,-134,-124,-121,-120,-128,-138,-131,-116,-109,-101,-87,-75,-67,-59,-49,-39,-31,-19,-3,7,19,35,47,48,44,50,64,83,97,106,116,132,139,132,124,119,109,101,109,119,114,108,115,124,125,116,105,114,137,156,165,166,160,149,125,98,80,65,44,27,16,-1,-13,-15,-19,-20,-16,-29,-50,-72,-96,-111,-113,-114,-126,-141,-148,-154,-160,-139,-72,-15,-45,-144,-217,-225,-197,-184,-175,-170,-174,-179,-178,-179,-177,-172,-164,-148,-128,-115,-108,-102,-93,-84,-80,-79,-77,-71,-61,-53,-54,-52,-44,-35,-28,-26,-24,-14,-4,-3,-11,-23,-38,-54,-59,-50,-38,-34,-25,-9,-3,0,11,14,3,-16,-35,-46,-40,-30,-32,-37,-46,-62,-72,-75,-78,-85,-88,-87,-94,-105,-107,-100,-98,-102,-109,-110,-100,-91,-90,-95,-99,-96,-92,-99,-101,-91,-85,-89,-97,-104,-105,-99,-98,-82,-65,-64,-72,-76,-79,-77,-56,4,79,93,-14,-106,-124,-85,-58,-48,-46,-50,-44,-32,-26,-20,-16,-15,-15,-18,-16,-10,-6,0,9,19,29,32,40,54,57,55,65,68,70,82,93,100,106,108,102,92,78,61,50,47,41,34,33,42,45,36,31,29,21,17,19,16,8,15,21,11,0,-5,-5,-1,-4,-12,-20,-24,-23,-22,-21,-20,-21,-16,-14,-22,-26,-24,-26,-32,-44,-59,-62,-58,-66,-76,-74,-66,-57,-52,-63,-94,-127,-143,-148,-156,-169,-182,-185,-174,-162,-156,-146,-99,-7,47,-6,-106,-148,-126,-92,-72,-59,-47,-37,-29,-18,-7,0,11,24,27,32,46,62,72,73,76,90,102,111,128,145,151,158,171,183,193,206,219,225,228,224,217,207,194,176,156,143,140,138,137,134,132,131,128,125,126,123,115,113,120,121,111,104,102,100,92,77,64,59,58,58,60,61,53,46,45,49,50,40,33,32,32,28,26,30,32,24,27,31,24,19,23,24,20,19,17,17,16,9,2,0,9,11,8,16,24,32,41,43,29,18,10,2,-19,-49,-68,-71,-61,-55,-46,-7,54,76,1,-115,-183,-197,-191,-174,-156,-145,-137,-136,-132,-118,-96,-82,-84,-79,-62,-47,-39,-29,-17,-4,6,12,23,36,47,60,74,83,84,89,108,119,119,120,118,109,99,88,72,54,50,56,61,62,57,55,63,69,71,68,65,64,68,70,66,60,55,54,54,49,51,58,61,63,70,71,68,69,70,64,52,46,36,18,4,-5,-12,-11,-7,-8,-12,-16,-18,-15,-16,-19,-18,-17,-20,-23,-18,-12,-11,-15,-11,-7,-3,2,9,10,7,0,-2,2,4,7,21,29,18,-1,-9,-11,-20,-29,-30,-31,-32,-31,-35,-40,-41,-39,-43,-48,-45,-44,-48,-36,10,81,99,5,-94,-127,-107,-83,-75,-67,-58,-58,-53,-43,-40,-35,-23,-15,-14,-16,-15,-11,-9,-7,-4,-7,-10,-5,1,10,26,41,51,59,65,66,74,85,93,97,92,77,63,50,38,21,1,-12,-16,-9,-6,-14,-17,-16,-14,-6,5,8,0,-1,-5,-12,-8,3,5,-3,-9,-14,-17,-19,-17,-16,-19,-17,-12,-5,-1,-7,-23,-42,-48,-43,-45,-50,-49,-49,-46,-48,-55,-56,-49,-48,-53,-56,-57,-58,-58,-57,-66,-80,-83,-66,-60,-58,-55,-56,-58,-57,-54,-55,-55,-50,-44,-36,-29,-26,-25,-17,-12,-16,-13,-8,-12,-14,-12,-16,-20,-12,-4,-3,-6,-7,0,3,24,90,158,163,39,-39,-54,-35,-13,-1,0,-1,0,1,-3,-5,0,2,0,3,13,25,26,14,11,10,19,26,29,37,40,43,51,53,48,51,60,68,65,50,33,15,-5,-28,-54,-80,-98,-108,-114,-115,-110,-107,-118,-133,-137,-130,-124,-123,-126,-119,-105,-98,-95,-86,-81,-80,-82,-75,-69,-68,-66,-61,-50,-38,-34,-32,-28,-23,-9,0,-1,5,12,13,11,13,17,18,16,28,41,43,39,38,43,51,56,59,59,61,64,67,71,75,76,79,81,83,85,88,94,97,94,96,102,105,104,111,122,123,112,113,108,98,94,96,99,96,92,91,96,125,192,254,256,126,44,30,56,79,86,85,86,83,67,47,32,19,0,-17,-25,-29,-37,-51,-54,-51,-50,-45,-43,-49,-56,-58,-56,-46,-31,-17,-12,-8,0,5,4,0,-13,-22,-27,-35,-42,-47,-59,-70,-71,-70,-69,-65,-63,-65,-66,-61,-55,-47,-41,-36,-35,-38,-40,-32,-28,-29,-33,-38,-40,-42,-44,-38,-35,-36,-34,-36,-38,-35,-39,-52,-62,-70,-80,-88,-89,-90,-91,-86,-82,-79,-75,-72,-68,-61,-51,-47,-46,-39,-32,-26,-25,-34,-44,-45,-35,-27,-25,-25,-22,-17,-10,-6,-5,0,4,6,12,20,23,18,14,12,15,17,10,7,13,20,19,17,43,115,191,199,77,-9,-26,-2,20,33,40,37,39,48,51,53,59,62,58,54,52,59,70,79,80,69,68,80,81,76,82,100,118,123,123,123,123,131,144,147,141,142,143,126,112,105,99,94,88,76,68,72,74,66,65,65,58,57,59,50,44,41,38,36,39,44,46,47,49,44,37,40,44,41,34,33,46,48,42,41,46,49,43,33,29,32,28,22,20,13,1,-1,8,11,3,1,2,2,7,8,-3,-4,-1,-11,-10,-13,-22,-24,-25,-31,-32,-31,-30,-28,-32,-25,21,92,111,22,-75,-114,-96,-61,-40,-38,-43,-45,-48,-53,-53,-54,-52,-39,-30,-32,-42,-51,-53,-58,-61,-55,-47,-35,-23,-16,-10,1,14,21,24,32,44,54,55,45,42,39,26,7,-10,-23,-30,-31,-35,-45,-50,-47,-37,-34,-40,-43,-46,-51,-45,-41,-43,-40,-31,-29,-31,-29,-29,-28,-23,-21,-20,-16,-15,-21,-20,-16,-14,-11,-6,-2,-2,-5,-1,2,0,-1,3,-1,-7,-3,5,6,-2,-4,-8,-22,-33,-36,-49,-69,-75,-72,-85,-109,-125,-128,-129,-139,-156,-172,-188,-197,-193,-182,-175,-174,-181,-182,-174,-163,-127,-55,12,20,-84,-152,-160,-130,-108,-92,-83,-80,-77,-73,-70,-65,-56,-48,-41,-38,-41,-42,-30,-23,-16,-5,3,9,11,14,15,19,34,57,67,68,71,80,83,82,84,85,74,57,49,46,35,22,18,25,32,33,34,40,41,37,46,53,52,56,64,67,65,68,71,65,63,75,77,68,70,76,76,75,75,74,73,73,71,67,68,70,71,63,55,49,42,37,35,34,31,24,18,14,7,0,-4,-5,-9,-17,-18,-7,-12,-23,-27,-25,-19,-18,-26,-35,-36,-37,-39,-32,-18,-9,-12,-24,-33,-37,-44,-45,-47,-54,-57,-60,-62,-37,26,107,126,28,-66,-92,-66,-39,-30,-28,-21,-17,-15,-7,-4,-13,-35,-55,-62,-61,-66,-78,-82,-81,-84,-86,-72,-56,-50,-52,-50,-43,-32,-16,0,7,17,30,34,28,27,25,20,11,-1,-12,-21,-27,-23,-16,-15,-20,-23,-21,-8,3,2,1,1,0,5,15,22,26,28,24,23,32,33,30,33,35,34,37,42,43,42,41,40,45,44,43,46,47,43,40,42,44,41,39,45,42,38,43,44,40,39,39,39,48,60,53,42,39,33,23,22,32,34,30,27,22,15,12,8,7,15,18,12,3,-4,-11,-17,-18,-9,-1,0,-5,8,68,145,163,64,-32,-59,-47,-32,-21,-19,-18,-12,-8,-4,-1,-2,0,2,-2,-10,-17,-19,-19,-20,-20,-17,-13,-5,5,12,11,18,35,44,45,51,57,61,71,78,79,68,53,38,26,13,0,-4,-3,-5,-2,0,-5,-6,7,11,6,1,0,0,0,0,-3,-1,10,20,21,14,12,13,16,23,24,8,4,9,10,2,-2,-1,2,2,1,11,15,5,-3,2,8,0,-12,-23,-40,-58,-62,-59,-69,-81,-83,-85,-94,-99,-97,-96,-100,-104,-116,-146,-184,-206,-209,-207,-214,-224,-228,-224,-218,-210,-198,-190,-182,-174,-182,-184,-103,-13,1,-113,-203,-220,-195,-165,-147,-141,-131,-118,-113,-104,-89,-79,-78,-78,-69,-61,-54,-47,-38,-27,-18,-10,-6,-2,8,18,20,24,37,51,63,74,84,90,92,92,89,80,58,26,3,-5,-8,-14,-23,-25,-26,-31,-25,-16,-15,-18,-16,-14,-11,-9,-3,3,9,18,21,17,16,25,33,45,49,42,39,42,43,39,42,44,46,51,53,41,36,43,50,51,40,39,48,49,50,54,56,57,59,61,66,67,43,10,-15,-32,-37,-32,-30,-38,-41,-41,-39,-26,11,80,113,43,-66,-119,-122,-105,-92,-80,-67,-60,-65,-70,-69,-67,-64,-65,-62,-57,-59,-60,-46,-37,-40,-41,-34,-28,-25,-17,-3,8,12,21,38,45,42,41,46,49,50,38,23,8,-4,-16,-28,-32,-34,-40,-41,-33,-29,-19,-17,-23,-18,-12,-11,-14,-15,-11,-6,-6,-4,0,-2,-4,-3,-1,-4,-2,6,11,9,10,15,16,7,6,8,10,16,15,11,10,11,8,6,3,-1,-3,7,13,17,23,21,14,12,15,22,30,33,27,17,14,19,18,15,10,4,3,1,0,17,69,146,167,70,-25,-53,-36,-16,-8,-9,-11,-10,-3,1,-11,-40,-69,-77,-71,-68,-68,-67,-62,-50,-43,-44,-45,-32,-25,-21,-11,6,19,27,38,49,57,65,69,70,64,51,31,12,4,2,-8,-20,-16,-10,-14,-17,-17,-21,-24,-21,-21,-22,-19,-21,-26,-31,-33,-32,-26,-17,-11,-10,-10,0,14,15,1,3,4,0,6,13,15,12,5,4,5,2,4,3,0,0,1,4,12,14,1,0,12,13,9,14,18,13,7,6,11,12,4,4,4,6,11,9,5,4,4,-4,-16,-22,-28,-32,-31,-29,-24,-13,18,91,152,116,17,-52,-66,-48,-30,-24,-24,-23,-28,-32,-33,-28,-21,-20,-27,-25,-23,-26,-28,-25,-23,-22,-11,1,3,0,-1,-3,0,12,28,35,37,45,57,58,42,31,25,18,7,-8,-19,-20,-19,-9,-1,-4,-5,0,1,5,11,15,20,27,29,19,12,19,28,25,17,16,21,15,12,13,15,19,20,19,17,13,10,8,4,3,13,16,12,9,8,14,13,5,3,7,8,3,-4,-13,-17,-14,-12,-17,-19,-16,-21,-27,-28,-23,-26,-34,-40,-42,-35,-27,-28,-34,-39,-40,-33,-29,-33,-35,-34,-41,-42,-23,4,70,151,166,52,-36,-52,-36,-22,-8,0,-1,-9,-12,-4,0,3,6,10,19,21,16,15,17,19,19,20,24,26,27,32,39,48,58,64,71,81,87,90,94,97,93,78,64,52,35,24,22,14,0,-4,4,6,-1,0,3,2,3,5,4,5,6,-1,-9,-6,4,6,0,0,-2,-2,-1,1,4,0,-1,8,12,3,1,8,9,3,1,3,3,4,9,12,7,2,7,10,6,0,-3,-4,-3,-3,-10,-13,-13,-16,-17,-17,-19,-17,-13,-12,-18,-26,-37,-45,-56,-66,-69,-75,-87,-97,-105,-111,-110,-91,-28,55,75,-28,-127,-153,-132,-112,-105,-102,-98,-93,-86,-83,-85,-81,-74,-72,-76,-78,-75,-74,-79,-80,-73,-68,-64,-58,-52,-45,-32,-22,-16,-10,-4,2,14,28,36,37,32,21,5,-11,-24,-25,-20,-28,-37,-42,-35,0,65,134,180,202,226,256,270,262,243,221,202,191,189,193,210,248,295,339,379,408,435,465,493,514,529,547,566,582,589,595,608,622,630,640,646,647,648,642,635,615,549,451,377,332,287,241,207,173,131,99,85,72,54,44,33,23,55,111,123,12,-118,-177,-157,-115,-76,-45,-38,-50,-60,-65,-76,-88,-101,-120,-136,-148,-166,-184,-190,-187,-185,-196,-228,-284,-343,-377,-380,-349,-322,-298,-268,-237,-219,-207,-199,-195,-188,-182,-184,-186,-179,-175,-177,-179,-178,-178,-175,-167,-158,-145,-132,-128,-126,-116,-101,-89,-81,-76,-68,-56,-40,-29,-20,-13,-10,-10,-12,-26,-50,-68,-70,-64,-60,-55,-44,-32,-28,-29,-21,-2,14,15,8,16,27,31,28,31,41,56,70,72,58,45,37,35,42,47,45,49,53,47,40,37,66,144,204,158,42,-32,-39,5,24,26,24,24,24,26,30,31,24,22,32,39,39,38,34,27,26,32,34,25,22,23,25,40,63,79,85,90,96,99,106,109,95,67,33,2,-17,-26,-28,-27,-27,-31,-44,-58,-61,-53,-43,-41,-43,-43,-46,-53,-68,-83,-84,-78,-81,-79,-81,-85,-84,-82,-83,-83,-91,-108,-118,-116,-120,-126,-125,-127,-134,-138,-139,-142,-154,-163,-171,-183,-190,-195,-207,-221,-228,-230,-235,-241,-244,-253,-266,-268,-232,-185,-136,-95,-61,-36,-10,21,46,60,75,92,107,121,130,137,159,217,295,317,219,104,56,54,73,91,98,85,56,34,42,66,87,104,119,132,140,150,166,179,188,196,203,211,221,230,237,242,247,253,261,272,277,276,278,280,275,260,237,214,201,196,187,170,154,138,127,120,115,119,123,118,108,76,21,-27,-63,-89,-102,-98,-87,-79,-75,-70,-61,-55,-54,-65,-75,-72,-66,-70,-82,-86,-80,-68,-58,-48,-34,-19,-14,-12,1,19,20,14,23,33,36,35,34,36,40,44,45,42,39,38,39,38,38,43,49,55,53,40,33,31,27,31,38,35,31,32,31,28,45,111,197,222,139,34,-4,11,31,38,39,43,45,45,52,55,45,42,52,56,55,55,53,52,59,66,65,67,72,72,75,84,92,97,101,106,101,72,26,-17,-59,-110,-170,-218,-240,-246,-243,-235,-221,-203,-189,-171,-147,-127,-114,-102,-89,-77,-65,-54,-41,-28,-20,-19,-15,-8,-7,-24,-55,-93,-125,-140,-135,-122,-114,-102,-85,-69,-56,-47,-44,-57,-69,-65,-51,-42,-31,-14,-1,8,14,19,28,40,48,55,69,83,84,79,77,76,75,73,74,79,85,96,106,111,128,188,280,310,232,134,103,130,157,161,156,154,155,157,160,171,181,183,184,180,167,155,147,140,129,118,107,96,90,83,69,63,65,67,65,62,57,52,45,36,29,15,-11,-59,-146,-240,-292,-308,-311,-298,-285,-281,-273,-249,-227,-213,-202,-191,-185,-190,-193,-186,-181,-184,-179,-161,-146,-139,-135,-126,-118,-114,-107,-100,-97,-97,-92,-78,-71,-70,-67,-63,-57,-49,-45,-43,-41,-42,-39,-24,-6,-3,-14,-22,-28,-30,-27,-29,-38,-43,-42,-39,-36,-30,4,81,135,81,-35,-101,-104,-65,-43,-38,-40,-38,-29,-24,-19,-10,-1,0,-2,0,1,-1,-15,-41,-61,-63,-52,-43,-31,-13,-6,-10,0,20,32,44,56,62,66,73,78,71,47,27,17,10,7,6,3,1,5,6,-4,-6,-1,-3,-7,-8,-7,-6,-5,-4,-3,-6,-2,8,12,9,3,-4,-8,-10,-9,-7,-6,-8,-6,-6,-8,-7,-5,-5,-2,4,2,1,7,8,5,10,9,10,11,10,9,13,20,26,28,21,13,9,2,1,3,-4,-8,-5,0,-1,-2,43,114,137,57,-50,-93,-76,-53,-43,-36,-30,-27,-21,-10,-9,-15,-10,-7,-10,-11,0,5,0,1,6,7,8,11,14,14,13,19,23,30,38,47,57,59,58,53,39,19,-9,-36,-52,-64,-71,-69,-68,-68,-65,-66,-70,-68,-60,-51,-49,-53,-56,-49,-41,-40,-36,-30,-26,-19,-17,-25,-28,-19,-12,-16,-17,-10,-6,-7,-8,-3,-4,-7,-6,-8,-14,-11,-7,-11,-12,-3,3,7,11,17,19,17,14,17,24,21,15,22,35,40,39,31,21,13,7,6,13,17,16,15,17,18,40,105,181,192,76,-10,-26,-5,10,12,12,22,27,23,21,27,28,27,31,36,39,35,26,20,19,22,20,19,21,21,19,20,22,28,36,48,60,62,65,74,76,65,55,38,19,3,-7,-12,-14,-17,-18,-17,-19,-20,-22,-20,-12,-9,-16,-14,-13,-16,-17,-18,-14,-13,-12,-3,-1,-10,-12,-9,-8,-5,-4,-8,-7,-8,-9,-3,2,0,-7,-8,-9,-10,-10,-8,-9,-12,-8,-2,-6,-8,-8,-10,-9,-8,-4,0,1,0,4,10,14,22,27,22,12,4,2,3,0,-6,0,12,13,6,42,114,167,131,27,-42,-49,-17,-6,-5,-11,-14,-9,-6,-5,-7,-2,0,-1,-2,3,10,15,15,9,7,18,20,15,26,40,46,51,59,66,73,84,94,96,98,102,103,90,69,52,44,36,21,10,9,11,14,18,17,10,1,0,8,10,-2,-5,0,1,4,4,6,7,0,-1,5,8,9,9,7,6,5,1,-1,1,7,5,1,9,13,9,7,3,-9,-17,-11,-6,-7,-10,-7,-5,-13,-15,-3,6,8,-7,-25,-33,-30,-21,-20,-29,-31,-28,-24,-21,-10,43,126,145,35,-69,-108,-103,-90,-80,-73,-65,-57,-53,-57,-59,-53,-48,-50,-52,-49,-36,-24,-22,-29,-27,-20,-9,-3,0,3,8,15,27,39,48,57,64,69,73,73,74,72,59,44,39,31,15,5,0,-4,-2,7,14,9,6,8,6,5,4,3,15,23,18,9,6,1,-1,-3,-5,-10,-27,-46,-55,-59,-69,-82,-86,-82,-77,-74,-64,-52,-46,-43,-38,-32,-20,-2,10,4,-8,-10,-8,-10,-7,-3,-6,-12,-15,-16,-2,33,105,154,103,0,-59,-62,-31,-14,-11,-17,-18,-20,-22,-23,-28,-26,-18,-17,-18,-11,-12,-15,-17,-17,-14,-4,7,12,13,14,21,32,41,52,61,62,59,64,72,70,56,36,19,9,7,1,-14,-20,-17,-15,-19,-20,-10,-13,-16,-7,-6,-10,-6,-2,-2,-2,1,0,-3,-1,0,1,2,-4,-9,-4,2,7,8,10,17,19,15,19,26,27,20,18,18,22,32,37,31,22,17,21,29,30,20,16,14,8,4,6,5,0,-4,-2,0,21,88,165,176,54,-31,-46,-27,-14,-9,-4,-2,-2,3,8,13,16,15,12,8,4,0,0,3,9,14,15,6,9,19,23,28,37,45,53,62,68,71,78,81,71,61,52,39,25,11,2,-1,-7,-11,-12,-14,-13,-10,-12,-15,-13,-11,-11,-10,-8,-12,-7,4,5,-4,-6,-7,-9,-12,-15,-10,-1,0,-3,-5,-5,-8,-10,-9,-7,-1,0,-5,-11,-10,-7,-8,-9,-8,-5,-2,2,0,-5,-3,0,4,13,17,7,-1,-4,-6,-8,-9,-8,-7,-13,-14,-7,19,91,165,171,38,-46,-59,-33,-16,-12,-9,-6,-7,-9,-3,0,-6,-10,-5,-6,-7,-5,-3,1,10,14,12,7,5,8,18,33,47,58,65,71,73,78,89,97,98,86,70,54,40,27,17,3,-7,-8,0,2,-2,-6,-5,-4,-3,0,-6,-13,-11,-3,-1,-3,2,8,2,-4,-1,1,0,0,1,0,-2,1,6,4,0,1,0,-4,-5,-3,4,11,12,8,4,1,0,0,-2,-3,-3,2,18,29,27,21,15,6,-1,-4,-4,-6,-5,0,8,9,-5,-8,62,149,170,67,-39,-65,-36,-9,0,-8,-19,-20,-9,-1,0,-4,-8,-1,9,2,-10,-5,3,13,19,19,24,32,38,43,47,51,64,77,84,90,92,87,92,99,88,71,61,50,38,25,15,6,-1,-7,-15,-27,-31,-23,-15,-14,-17,-18,-17,-15,-13,-18,-24,-25,-18,-14,-11,-6,-3,-5,-6,-5,-11,-15,-16,-13,-14,-15,-11,-10,-10,-4,-7,-10,1,3,-3,8,17,14,10,-1,-14,-15,-12,-13,-9,-6,-11,-15,-15,-7,31,109,155,92,-19,-72,-59,-29,-9,-4,-10,-13,-5,1,2,0,11,16,10,5,7,14,18,19,15,20,27,29,30,35,46,60,67,70,76,83,90,101,108,109,99,82,65,54,42,31,29,32,33,32,35,36,40,50,60,65,67,70,78,89,97,104,115,125,136,146,151,157,163,161,160,174,188,199,201,200,207,221,232,240,249,260,264,262,266,271,277,289,299,306,313,314,310,309,315,324,325,317,315,311,335,406,453,397,272,183,167,170,146,97,36,-10,-33,-54,-81,-108,-122,-129,-150,-182,-210,-235,-248,-252,-266,-298,-334,-357,-366,-355,-336,-325,-312,-294,-272,-249,-247,-281,-292,-291,-289,-301,-329,-364,-403,-439,-457,-463,-465,-461,-455,-444,-440,-489,-526,-511,-468,-422,-378,-344,-312,-269,-233,-223,-217,-204,-200,-196,-167,-124,-87,-66,-60,-50,-37,-35,-34,-43,-70,-92,-103,-105,-103,-96,-93,-117,-134,-125,-109,-104,-103,-101,-103,-112,-125,-146,-178,-204,-223,-249,-276,-297,-307,-275,-191,-123,-159,-265,-333,-339,-302,-273,-252,-230,-203,-175,-149,-126,-104,-79,-52,-27,0,29,54,79,100,121,147,166,182,205,230,258,288,300,287,281,308,342,368,392,412,428,439,444,445,432,426,427,429,429,427,425,432,435,434,436,437,436,423,399,372,333,297,279,258,230,202,167,124,76,40,30,33,34,20,-25,-105,-194,-267,-319,-365,-415,-460,-499,-532,-547,-548,-547,-548,-533,-529,-528,-517,-508,-503,-499,-490,-473,-453,-435,-417,-399,-383,-371,-361,-341,-318,-283,-193,-63,0,-54,-137,-156,-114,-67,-41,-22,1,23,46,68,84,96,107,117,121,125,135,148,157,159,155,144,130,117,106,95,87,86,89,94,107,123,139,157,168,159,138,121,99,68,35,-3,-47,-80,-95,-107,-120,-123,-110,-98,-95,-98,-99,-101,-108,-113,-111,-105,-100,-104,-118,-121,-98,-85,-76,-63,-50,-30,-7,5,9,9,7,10,15,21,31,42,46,39,26,14,10,11,14,19,26,32,37,42,48,79,167,243,202,91,22,16,56,86,101,111,119,116,112,125,141,145,149,158,167,177,190,207,217,218,212,211,216,223,235,248,259,276,301,314,320,333,349,360,363,351,332,320,314,293,267,251,240,224,211,210,214,199,186,185,183,181,187,194,187,175,166,155,152,161,165,160,159,161,153,152,155,157,156,150,149,152,149,148,156,160,166,176,189,202,211,215,216,209,199,189,181,178,182,183,172,155,135,117,106,124,157,116,-34,-199,-294,-332,-353,-385,-435,-489,-542,-592,-628,-651,-670,-672,-624,-583,-565,-564,-585,-626,-683,-751,-818,-878,-937,-984,-1001,-990,-971,-955,-941,-926,-912,-898,-882,-875,-905,-563,372,1127,1265,1237,1254,1268,1286,1295,1248,1148,1043,973,929,896,862,798,713,628,539,420,259,97,-37,-143,-233,-340,-435,-483,-494,-486,-480,-474,-471,-469,-462,-461,-461,-457,-458,-459,-463,-465,-465,-469,-473,-480,-486,-491,-498,-504,-514,-525,-533,-544,-554,-564,-576,-590,-604,-613,-627,-640,-650,-665,-680,-697,-712,-725,-743,-760,-779,-797,-816,-838,-849,-834,-793,-748,-712,-677,-638,-591,-546,-506,-458,-409,-372,-345,-316,-280,-249,-227,-205,-180,-159,-145,-124,-88,-55,-30,0,47,101,154,198,222,241,258,262,245,225,217,215,213,217,227,230,227,225,226,230,242,258,276,297,311,324,337,343,344,332,321,317,316,316,320,325,319,306,304,306,297,294,299,291,277,283,293,294,301,317,335,349,356,362,370,377,372,352,321,291,273,264,253,235,208,194,197,202,209,220,225,226,224,212,202,232,315,392,396,253,155,120,119,142,147,137,130,129,129,125,122,121,132,146,154,158,164,180,194,191,181,172,167,173,176,177,183,195,215,239,261,281,299,320,333,334,328,321,310,295,283,277,273,271,272,264,242,227,226,229,222,216,214,223,233,239,244,241,235,239,243,237,231,230,229,226,221,219,221,222,214,197,181,172,165,161,158,152,146,139,126,119,116,110,100,82,57,37,22,14,10,-3,-12,-11,-19,-32,-34,-2,59,90,20,-90,-138,-130,-111,-95,-93,-98,-95,-99,-110,-118,-119,-116,-115,-124,-133,-135,-138,-145,-147,-148,-152,-146,-134,-123,-115,-105,-97,-89,-75,-56,-44,-33,-16,1,11,10,1,-11,-23,-38,-53,-54,-42,-41,-41,-36,-32,-25,-21,-23,-22,-16,-12,-15,-12,-4,-1,-27,-59,-71,-67,-63,-58,-55,-51,-46,-45,-59,-73,-70,-62,-58,-53,-44,-36,-32,-22,-8,1,2,5,5,0,-5,-5,2,14,20,28,34,35,51,101,176,211,155,62,14,28,66,88,97,104,110,122,137,141,140,145,149,148,145,138,131,130,131,116,102,90,73,57,40,17,-8,-34,-62,-86,-101,-109,-117,-132,-150,-168,-186,-215,-261,-304,-340,-377,-414,-453,-492,-536,-590,-635,-671,-710,-753,-802,-850,-879,-887,-893,-903,-912,-910,-899,-885,-872,-852,-823,-797,-778,-758,-725,-683,-639,-589,-537,-500,-475,-451,-429,-406,-368,-329,-299,-267,-233,-203,-171,-136,-113,-103,-89,-65,-40,-16,11,33,40,44,69,146,250,277,181,89,72,95,116,130,133,136,151,162,176,195,201,200,211,225,236,252,265,266,256,249,248,254,228,184,153,134,128,126,109,99,105,114,122,124,116,96,69,38,1,-23,-33,-54,-82,-93,-90,-89,-91,-90,-85,-74,-68,-75,-83,-90,-111,-142,-169,-193,-214,-225,-230,-239,-245,-240,-231,-222,-213,-203,-189,-164,-132,-107,-97,-90,-81,-68,-51,-36,-23,-9,2,7,18,39,55,57,45,31,13,2,2,-1,-10,-13,-11,-17,-37,-57,-34,59,147,110,-20,-115,-132,-117,-107,-110,-117,-125,-136,-143,-160,-191,-216,-239,-264,-284,-317,-360,-391,-416,-436,-440,-439,-436,-424,-405,-380,-353,-322,-278,-236,-206,-174,-134,-104,-91,-83,-79,-79,-75,-70,-69,-64,-53,-46,-37,-22,-10,-1,11,20,24,40,56,60,58,64,74,78,73,72,76,73,79,94,103,106,110,118,133,144,152,159,166,175,177,172,171,177,184,185,184,192,203,206,205,193,167,150,143,135,128,116,97,75,58,39,30,74,162,190,93,-23,-75,-81,-84,-85,-83,-84,-90,-94,-91,-84,-77,-69,-66,-64,-63,-68,-73,-77,-75,-60,-41,-30,-36,-47,-49,-35,-20,1,30,58,81,102,123,139,150,153,144,133,130,132,127,121,126,133,131,127,131,134,130,126,123,120,121,125,124,121,122,123,118,114,117,119,118,119,116,111,115,119,120,121,122,122,128,136,139,133,121,108,100,97,100,102,97,87,77,67,56,54,115,197,216,103,-10,-48,-38,-28,-25,-24,-32,-43,-54,-66,-79,-89,-92,-93,-87,-81,-84,-89,-90,-84,-76,-69,-63,-58,-54,-47,-39,-34,-26,-11,3,14,22,24,7,-9,-21,-37,-50,-54,-50,-46,-43,-37,-33,-42,-59,-69,-70,-62,-64,-71,-72,-60,-50,-32,-14,-11,-26,-57,-88,-92,-63,-41,-26,-14,-4,4,9,10,-2,-35,-76,-104,-117,-122,-115,-91,-63,-46,-38,-29,-9,10,23,35,48,57,65,83,144,254,316,258,153,103,101,120,123,125,126,128,137,125,83,51,46,46,47,60,79,95,99,73,50,55,70,81,89,104,127,144,155,167,169,134,94,75,83,97,109,105,93,102,112,106,89,49,-3,-37,-63,-105,-152,-197,-245,-289,-315,-319,-310,-287,-252,-218,-193,-170,-152,-137,-121,-107,-78,-40,-16,-11,-8,3,20,38,50,56,55,53,59,75,88,84,71,67,68,61,48,38,25,6,-6,-7,5,12,43,118,178,150,46,-46,-73,-51,-20,-3,1,9,24,26,6,3,4,1,14,30,35,42,53,57,45,23,10,5,0,8,24,40,57,78,98,115,130,145,159,175,182,164,127,97,81,77,76,70,62,61,64,65,56,29,-20,-68,-99,-125,-157,-194,-232,-265,-291,-316,-357,-406,-441,-461,-482,-506,-533,-553,-559,-560,-565,-572,-578,-587,-593,-586,-565,-538,-514,-488,-473,-480,-489,-485,-474,-468,-462,-447,-429,-414,-396,-372,-337,-263,-154,-110,-190,-296,-331,-312,-289,-270,-250,-237,-231,-216,-189,-159,-128,-101,-80,-63,-43,-18,3,23,45,63,81,103,125,145,171,198,220,237,261,295,321,338,360,373,355,326,312,302,286,274,265,257,250,243,242,249,232,195,183,207,223,221,214,201,173,124,73,37,27,34,40,53,69,78,84,88,89,96,99,80,55,29,-7,-56,-102,-141,-177,-199,-202,-205,-220,-242,-260,-270,-273,-276,-277,-258,-209,-109,-35,-77,-171,-209,-189,-157,-132,-127,-135,-136,-122,-112,-120,-130,-122,-101,-78,-46,0,47,86,124,158,192,230,262,291,329,369,402,441,492,545,592,633,673,713,737,740,737,741,745,747,746,751,759,764,772,774,767,766,768,753,742,736,725,706,692,675,635,582,535,494,455,424,393,352,310,276,240,198,155,107,46,-11,-42,-66,-108,-152,-188,-216,-227,-231,-232,-226,-220,-213,-208,-193,-136,-47,-13,-82,-177,-207,-186,-171,-168,-165,-162,-164,-163,-157,-169,-197,-215,-231,-264,-308,-352,-385,-392,-380,-366,-357,-371,-425,-489,-524,-532,-538,-543,-522,-476,-425,-371,-329,-310,-307,-303,-289,-276,-267,-246,-214,-189,-177,-163,-143,-134,-126,-106,-87,-72,-53,-31,-15,-5,0,-1,-14,-33,-43,-45,-49,-55,-61,-68,-81,-91,-82,-62,-49,-33,-24,-32,-36,-29,-22,-14,0,18,27,29,25,10,-1,-4,6,25,48,55,40,56,141,235,251,139,57,43,61,80,87,81,87,104,111,115,128,143,149,151,156,163,165,144,99,71,62,70,99,114,123,148,172,185,196,198,206,230,246,248,238,219,193,173,154,121,86,69,54,24,-8,-24,-22,-15,-8,-4,-3,-6,-11,-21,-41,-69,-88,-106,-130,-147,-155,-166,-184,-202,-215,-229,-245,-257,-259,-258,-256,-245,-225,-207,-197,-190,-184,-181,-175,-163,-149,-146,-154,-150,-136,-127,-122,-111,-95,-77,-54,-4,93,199,223,128,35,16,53,90,106,110,111,110,118,122,120,114,109,112,114,103,88,70,44,14,-6,-22,-31,-35,-36,-35,-36,-27,-4,16,30,51,74,86,91,93,89,88,83,73,71,75,79,84,88,90,80,60,37,20,11,1,0,21,40,47,50,52,54,62,70,81,92,94,91,92,94,96,97,94,82,67,52,28,-7,-46,-79,-108,-149,-205,-255,-286,-315,-344,-363,-379,-391,-386,-381,-397,-422,-428,-426,-407,-329,-236,-228,-383,-466,-474,-450,-428,-402,-379,-359,-334,-316,-300,-277,-256,-236,-212,-184,-157,-135,-116,-100,-84,-59,-39,-28,-9,11,23,36,56,80,111,146,168,181,204,225,230,218,205,195,190,192,194,195,199,200,196,189,174,155,145,131,101,66,33,2,-24,-37,-48,-72,-102,-130,-147,-151,-151,-148,-152,-169,-188,-192,-186,-173,-156,-140,-122,-104,-91,-84,-88,-96,-106,-117,-119,-108,-101,-92,-80,-68,-57,-48,-17,61,135,138,16,-50,-55,-15,3,8,9,8,3,-8,-18,-19,-8,-2,0,-1,0,8,15,12,6,11,24,37,48,56,54,60,81,98,106,116,135,151,163,174,165,141,122,117,127,128,102,84,60,21,-3,-10,-19,-28,-37,-54,-65,-66,-70,-76,-86,-111,-143,-164,-167,-148,-125,-117,-115,-94,-67,-58,-48,-26,-12,-9,5,30,47,54,59,57,50,40,31,34,39,36,29,24,22,21,49,122,152,67,-49,-95,-80,-68,-69,-60,-50,-48,-54,-63,-72,-73,-65,-66,-68,-62,-55,-59,-67,-68,-65,-64,-56,-62,-82,-87,-66,-61,-74,-76,-64,-51,-40,-34,-23,-9,5,19,33,40,33,30,40,42,40,50,52,46,40,39,43,38,30,29,34,40,45,46,42,41,43,35,27,29,35,36,30,28,36,35,41,54,65,78,95,100,89,84,86,79,73,73,78,88,91,89,91,116,190,248,185,58,-8,-13,8,16,18,25,26,5,-4,-5,-12,-15,-12,-19,-23,-17,-20,-36,-48,-49,-31,-25,-39,-51,-53,-42,-28,-24,-26,-16,-7,0,12,19,20,18,10,-2,-9,-10,-5,-4,-13,-18,-10,-3,-4,-2,1,3,7,17,22,24,24,20,18,14,4,2,15,20,15,12,10,4,0,0,-7,-17,-10,1,7,9,8,5,-5,-25,-40,-41,-44,-60,-66,-64,-62,-61,-50,6,87,103,-15,-109,-123,-85,-68,-62,-52,-46,-40,-28,-17,-3,13,23,32,50,73,96,120,136,146,170,202,216,223,235,246,248,241,240,245,246,245,240,234,237,225,189,153,119,89,75,66,51,39,30,22,16,14,18,18,17,18,12,9,12,10,8,10,7,5,8,2,-7,-3,13,22,18,16,15,16,21,23,12,10,24,32,31,30,28,16,0,-15,-17,-9,-2,-1,-17,-30,-36,-39,4,86,117,41,-77,-141,-145,-128,-124,-129,-138,-141,-147,-151,-149,-152,-153,-141,-136,-134,-128,-122,-125,-123,-114,-108,-105,-101,-95,-80,-57,-48,-37,-11,12,31,47,51,56,59,48,34,26,24,27,31,33,26,25,42,52,57,65,68,65,62,65,69,75,76,63,59,64,60,58,68,71,69,72,82,84,73,67,65,68,74,75,68,69,67,59,43,20,0,-17,-43,-68,-85,-93,-90,-88,-111,-140,-153,-116,-42,-25,-148,-258,-280,-243,-210,-193,-183,-176,-174,-178,-179,-186,-199,-211,-221,-228,-232,-233,-232,-234,-236,-241,-250,-253,-251,-250,-251,-247,-235,-221,-206,-180,-145,-116,-99,-82,-67,-60,-56,-51,-48,-39,-27,-20,-6,10,16,22,35,51,67,81,89,96,105,112,115,116,118,125,136,149,159,161,155,156,163,171,185,201,211,224,232,225,217,214,206,195,192,196,194,193,195,182,174,203,269,305,246,136,67,50,49,39,18,-3,-27,-58,-87,-113,-132,-142,-147,-149,-152,-153,-142,-135,-138,-142,-141,-136,-128,-120,-119,-120,-107,-96,-90,-82,-77,-77,-69,-58,-51,-55,-69,-87,-94,-96,-106,-119,-122,-117,-113,-108,-107,-112,-110,-109,-113,-109,-105,-107,-106,-104,-105,-104,-105,-107,-100,-94,-94,-89,-81,-77,-74,-64,-52,-44,-43,-48,-54,-55,-50,-40,-26,-12,-3,-1,0,11,55,128,153,87,3,-24,-8,18,40,45,43,43,45,55,66,67,63,69,71,70,75,75,76,78,76,71,70,74,82,89,93,96,99,100,104,112,115,106,101,100,94,86,73,57,48,42,36,35,36,35,32,33,35,25,16,20,24,18,9,6,9,11,8,6,12,14,9,3,2,7,11,18,28,30,26,22,16,11,10,16,23,29,33,32,31,49,105,159,160,64,12,7,38,50,54,56,51,46,45,49,54,59,60,62,61,53,46,43,40,39,41,34,36,45,47,42,40,48,60,66,63,62,64,61,49,30,10,-11,-33,-49,-56,-56,-57,-62,-65,-61,-57,-60,-61,-56,-55,-59,-55,-50,-47,-48,-49,-48,-46,-44,-43,-42,-34,-28,-26,-26,-29,-33,-24,-13,-12,-13,-10,-10,-12,-16,-17,-12,-10,-15,-9,0,2,5,39,102,133,90,21,-14,-16,2,10,11,13,15,14,16,18,19,23,28,30,30,29,36,41,35,33,45,55,61,60,58,64,71,77,83,86,87,92,96,93,86,78,72,62,50,44,43,47,52,54,51,51,53,55,59,56,48,44,46,47,47,44,38,33,38,45,41,32,28,28,25,21,19,14,8,12,18,20,13,4,-4,-14,-26,-33,-38,-45,-49,-49,-50,-52,-26,31,68,24,-59,-101,-93,-76,-64,-53,-51,-63,-66,-64,-66,-70,-72,-71,-69,-67,-64,-61,-60,-55,-50,-49,-44,-36,-30,-25,-18,-15,-15,-9,0,12,17,14,9,6,4,0,-7,-10,-13,-22,-29,-32,-31,-28,-26,-27,-23,-15,-10,-8,-11,-20,-25,-28,-31,-33,-34,-36,-29,-20,-17,-14,-16,-24,-26,-28,-34,-38,-40,-41,-39,-33,-26,-25,-55,-77,-83,-89,-98,-99,-90,-88,-88,-86,-80,-73,-75,-67,-12,56,63,-42,-108,-117,-95,-79,-74,-74,-72,-70,-75,-85,-90,-83,-76,-74,-78,-86,-88,-85,-80,-74,-66,-56,-39,-17,0,7,13,21,36,53,67,75,80,81,79,80,72,62,60,58,52,50,54,67,74,70,68,73,77,83,96,110,124,130,128,131,134,123,105,93,88,85,79,70,63,59,58,58,55,52,50,44,36,26,23,30,33,11,0,16,32,35,36,10,-52,-112,-150,-176,-181,-156,-146,-142,-133,-111,-52,17,29,-57,-120,-129,-100,-80,-70,-64,-57,-48,-45,-58,-76,-93,-114,-131,-133,-116,-111,-106,-96,-88,-82,-73,-62,-53,-46,-36,-23,-15,-6,0,0,7,23,33,38,39,26,15,7,-1,-10,-24,-43,-62,-72,-71,-68,-68,-63,-54,-49,-47,-44,-41,-36,-35,-39,-37,-30,-28,-32,-34,-31,-19,-13,-11,-2,6,9,10,14,19,23,31,50,67,71,69,68,72,77,76,74,74,75,60,45,41,43,41,42,47,51,50,52,53,60,106,172,184,87,7,-35,-49,-44,-36,-37,-40,-41,-35,-33,-45,-70,-101,-113,-101,-89,-88,-90,-82,-74,-64,-59,-57,-44,-30,-24,-18,-6,0,-4,-1,8,18,26,28,21,13,8,5,-1,-5,-1,0,-6,-7,-1,2,0,-7,-8,-6,-4,0,3,4,4,8,12,13,12,15,17,17,16,17,26,34,36,39,40,37,34,34,35,34,31,34,37,42,62,95,124,145,158,163,157,147,136,125,112,96,77,65,63,61,47,37,48,80,144,210,214,70,-31,-50,-31,-20,-13,-9,-8,-4,-2,-4,-6,-10,-7,0,-4,-11,-12,-9,-2,0,0,2,11,16,18,21,26,37,52,63,72,80,91,95,81,65,55,45,36,26,18,11,2,-3,-1,0,-5,-8,-27,-47,-30,10,31,32,22,17,16,16,7,-6,-11,-5,-4,-9,-7,-5,-3,0,-5,-15,-17,-6,-3,-9,-12,-8,-2,-1,-8,-14,-15,-11,-12,-13,-12,-12,-3,13,22,16,11,10,1,-13,-18,-17,-20,-24,-24,-21,-17,-5,43,119,140,67,-14,-43,-34,-17,-7,-6,-13,-14,-12,-29,-81,-130,-140,-128,-115,-106,-100,-89,-78,-73,-64,-52,-49,-51,-46,-35,-17,6,20,22,17,11,15,33,45,36,21,14,10,1,-1,0,-5,-6,-2,-2,0,5,2,-5,-4,-3,-7,-6,-4,-1,0,-7,-20,-27,-32,-42,-54,-69,-85,-96,-101,-103,-106,-110,-113,-112,-106,-103,-108,-115,-114,-109,-103,-92,-79,-67,-54,-42,-35,-25,-16,-17,-15,-8,-2,6,15,17,21,24,21,13,5,1,0,4,3,-8,-24,-26,36,112,130,45,-39,-63,-45,-23,-15,-15,-10,-5,-15,-31,-34,-20,-18,-19,-7,1,6,7,6,10,20,30,36,38,39,49,64,75,86,100,114,124,132,136,136,132,118,99,81,71,67,60,55,55,54,53,57,60,61,56,39,16,-11,-37,-47,-50,-49,-50,-51,-42,-33,-24,-20,-22,-14,-8,-23,-37,-38,-27,-19,-10,-1,7,17,20,7,-1,4,18,26,27,32,39,40,42,51,61,63,60,63,67,64,60,63,69,68,74,89,93,81,55,7,-57,-119,-165,-191,-199,-193,-179,-165,-149,-107,-30,11,-38,-128,-177,-180,-155,-149,-149,-145,-142,-142,-140,-137,-136,-140,-145,-141,-131,-128,-130,-132,-132,-135,-138,-133,-128,-126,-124,-116,-106,-99,-98,-94,-87,-86,-91,-89,-88,-98,-106,-115,-133,-150,-118,-21,81,145,186,224,263,295,317,338,360,381,399,414,430,443,452,465,477,485,495,500,491,480,477,480,481,480,475,461,438,404,365,335,319,307,291,273,254,228,204,174,137,113,110,121,122,101,77,50,24,13,18,21,20,22,16,15,40,49,30,4,-12,-34,-65,-98,-129,-154,-161,-118,-60,-54,-181,-285,-323,-325,-327,-332,-336,-346,-357,-358,-332,-315,-308,-296,-276,-257,-249,-258,-277,-281,-273,-256,-233,-218,-217,-227,-235,-238,-233,-222,-207,-184,-160,-143,-124,-104,-95,-89,-87,-93,-101,-107,-103,-86,-65,-41,-24,-15,-7,-4,-5,-2,3,6,6,11,20,27,28,23,25,32,41,47,48,44,51,67,82,100,120,142,161,175,187,191,190,191,194,195,195,199,200,191,185,183,188,207,234,267,292,294,265,251,239,214,186,182,244,299,259,156,103,134,187,198,161,127,99,72,55,47,37,23,7,-2,-5,-11,-20,-29,-35,-36,-37,-35,-39,-43,-37,-19,18,74,117,124,104,87,74,64,49,26,3,-11,-27,-45,-56,-63,-67,-66,-70,-75,-74,-74,-73,-69,-65,-62,-68,-77,-43,30,61,38,12,-4,-9,-8,-15,-17,-7,0,1,-4,-9,-11,-8,-9,-11,-12,-16,-22,-24,-22,-14,-5,-6,-8,5,18,21,17,12,10,8,5,5,6,7,5,4,12,20,59,139,183,125,29,-19,-9,17,31,30,26,25,27,24,21,24,30,34,31,26,28,31,28,26,31,38,46,50,52,59,66,75,84,74,43,10,-1,7,8,-35,-88,-142,-189,-223,-235,-225,-206,-190,-182,-176,-165,-143,-119,-107,-103,-102,-94,-80,-73,-71,-67,-63,-60,-50,-42,-41,-39,-32,-31,-36,-34,-28,-29,-27,-19,-13,-10,-9,-13,-13,-18,-27,-32,-31,-25,-13,-4,1,9,17,23,28,35,43,50,60,64,44,23,29,40,48,55,45,33,29,7,-23,-34,-37,-38,-34,-41,-68,-87,-56,2,17,-60,-137,-158,-142,-130,-141,-170,-200,-219,-226,-232,-245,-266,-288,-303,-321,-335,-332,-330,-340,-341,-333,-339,-351,-364,-384,-400,-401,-378,-349,-324,-318,-334,-343,-279,-149,-35,30,78,121,159,190,221,264,309,347,377,402,432,444,417,368,328,312,302,280,255,233,209,182,161,154,148,114,52,-4,-50,-89,-105,-103,-96,-95,-97,-91,-84,-82,-85,-86,-77,-73,-72,-66,-62,-62,-59,-60,-64,-56,-42,-36,-36,-41,-50,-52,-49,-49,-50,-47,-54,-74,-89,-90,-72,-59,-51,-45,-51,-61,-62,-59,-69,-71,-64,-63,-62,-56,-51,-21,54,111,74,-17,-74,-79,-53,-41,-39,-44,-46,-40,-38,-39,-33,-27,-25,-28,-33,-35,-35,-34,-33,-29,-19,-12,-6,4,14,20,28,34,37,48,63,72,75,74,68,58,48,35,21,8,-5,-15,-19,-20,-16,-18,-23,-20,-1,36,71,76,57,48,40,30,26,27,29,28,24,23,24,22,23,21,13,8,11,10,8,7,8,11,10,9,8,8,9,12,13,14,14,18,20,18,21,28,36,44,50,54,55,46,43,42,41,39,36,35,35,36,43,44,34,26,17,13,12,8,6,5,0,-2,-4,-5,49,134,164,95,-1,-51,-54,-30,-24,-22,-5,9,10,29,69,81,58,41,31,24,21,16,10,5,1,1,2,0,4,16,23,25,32,41,44,46,51,54,57,58,50,34,17,-1,-24,-42,-45,-40,-38,-39,-46,-53,-57,-57,-51,-47,-49,-47,-42,-40,-42,-42,-36,-32,-29,-23,-21,-25,-27,-25,-21,-18,-21,-25,-26,-25,-24,-21,-15,-13,-12,-15,-20,-27,-35,-44,-52,-59,-67,-50,32,131,158,132,125,183,254,307,346,375,381,359,353,387,431,467,498,523,540,551,553,554,564,577,588,572,522,469,433,411,410,462,474,374,257,192,179,180,166,146,126,106,95,87,76,64,57,49,40,32,27,26,21,14,11,12,9,3,0,0,-4,-11,-17,-22,-26,-31,-40,-52,-57,-62,-73,-95,-125,-148,-156,-151,-139,-126,-115,-109,-107,-105,-99,-91,-84,-79,-73,-67,-57,-50,-51,-53,-49,-44,-42,-35,-19,-14,-19,-20,-14,-7,-3,-6,-7,-4,-3,-1,0,3,12,15,16,29,33,29,34,41,44,50,55,51,48,47,39,27,22,20,17,11,-3,-14,-10,-5,-10,-19,-30,-40,-44,-49,-60,-69,-70,-66,-65,-73,-75,-32,42,66,-9,-96,-122,-109,-97,-89,-85,-91,-97,-95,-94,-101,-105,-113,-122,-128,-132,-140,-162,-181,-189,-191,-191,-199,-211,-217,-211,-197,-184,-172,-159,-143,-130,-123,-114,-99,-90,-89,-99,-109,-118,-125,-132,-143,-147,-143,-138,-134,-132,-131,-128,-129,-133,-131,-130,-135,-134,-134,-125,-87,-39,-24,-17,11,28,23,39,69,74,47,30,20,7,-16,-29,3,64,100,89,61,43,42,54,37,15,25,36,28,42,76,92,90,101,135,161,170,162,133,92,50,20,32,76,113,138,157,169,191,245,326,368,326,248,208,224,259,281,289,298,306,314,326,329,321,324,326,310,285,279,299,319,327,330,335,342,338,313,275,243,225,204,183,191,205,206,222,260,289,293,280,265,254,252,262,280,299,306,305,323,334,313,266,218,182,150,126,117,119,121,102,82,69,53,35,27,19,4,-4,-10,-24,-35,-42,-50,-54,-58,-57,-56,-61,-63,-64,-71,-77,-82,-86,-86,-85,-81,-79,-78,-72,-70,-69,-64,-67,-68,-20,28,45,37,18,3,-1,-4,-13,-30,-47,-58,-76,-97,-107,-106,-108,-116,-135,-161,-188,-200,-160,-87,-73,-186,-283,-313,-300,-290,-290,-292,-297,-310,-329,-344,-354,-360,-364,-368,-369,-364,-365,-369,-370,-366,-363,-380,-424,-463,-474,-481,-504,-534,-564,-585,-589,-560,-519,-478,-446,-426,-405,-383,-367,-354,-339,-324,-315,-303,-277,-250,-236,-226,-212,-192,-176,-170,-166,-154,-139,-125,-115,-113,-111,-103,-96,-93,-86,-80,-82,-79,-71,-69,-69,-67,-62,-51,-44,-42,-44,-45,-35,1,89,178,196,154,130,127,126,127,136,150,155,138,120,109,100,91,86,79,68,62,58,45,30,23,30,40,42,33,23,18,16,18,21,20,21,23,22,19,18,38,96,153,161,129,126,189,264,330,374,379,328,289,261,252,253,227,194,192,246,272,274,248,220,213,229,251,274,297,338,402,448,451,434,463,497,505,518,554,598,629,634,560,465,419,414,389,334,272,228,199,171,156,155,147,133,125,119,110,98,88,81,76,80,85,82,73,65,55,43,41,44,30,4,-40,-93,-120,-121,-103,-95,-87,-74,-65,-60,-54,-42,-33,-32,-27,4,43,54,33,-13,-66,-109,-136,-139,-120,-111,-108,-106,-107,-114,-125,-129,-114,-99,-89,-86,-89,-86,-84,-99,-111,-113,-106,-97,-92,-93,-94,-73,-4,75,84,-36,-118,-135,-119,-105,-103,-116,-140,-166,-183,-191,-192,-197,-200,-195,-192,-206,-234,-260,-272,-274,-272,-271,-280,-286,-287,-273,-233,-166,-101,-53,2,78,131,137,115,83,39,29,58,63,20,-16,-33,-40,-43,-47,-53,-60,-64,-57,-47,-45,-46,-50,-52,-63,-92,-118,-134,-157,-169,-164,-168,-183,-194,-196,-180,-165,-153,-144,-142,-138,-130,-122,-112,-105,-98,-94,-91,-85,-76,-75,-79,-77,-74,-68,-64,-60,-51,-44,-41,-35,-26,-23,-26,-28,-29,-36,-40,-36,-27,-22,-18,-13,-14,-18,-12,20,73,87,14,-59,-83,-75,-57,-36,-20,-10,1,5,0,1,9,15,22,29,37,45,47,48,53,59,66,79,95,106,120,144,171,199,225,240,258,276,283,285,287,286,283,274,261,253,248,241,238,237,235,233,225,218,214,212,210,204,198,193,185,178,175,172,165,158,152,146,138,135,129,112,98,92,84,73,67,64,57,52,53,53,49,43,38,39,40,38,30,18,12,14,15,10,5,3,0,-2,-5,-3,7,9,-1,-7,-15,-31,-49,-58,-60,-59,-59,-57,-62,-63,-11,74,118,63,-30,-73,-62,-44,-42,-43,-42,-37,-32,-31,-37,-43,-50,-54,-58,-60,-59,-60,-59,-53,-46,-37,-28,-19,-4,11,23,27,34,49,63,72,77,78,83,89,87,82,72,55,46,45,42,35,31,28,27,29,35,36,31,28,27,27,25,15,5,-1,-3,-1,5,10,5,-5,-15,-22,-31,-41,-44,-36,-33,-44,-49,-37,-20,-11,-7,-6,-6,-2,-1,-4,-6,-8,-16,-26,-29,-23,-22,-25,-26,-37,-59,-90,-128,-157,-161,-140,-127,-123,-122,-136,-153,-160,-156,-154,-158,-159,-146,-127,-91,-18,57,66,-42,-107,-115,-97,-80,-75,-97,-141,-198,-238,-241,-223,-214,-203,-191,-188,-208,-247,-264,-250,-231,-215,-196,-178,-161,-148,-137,-127,-112,-90,-70,-49,-29,-13,0,8,15,20,14,1,-4,-13,-27,-30,-21,-19,-15,-11,-8,-3,2,4,-2,-8,-4,1,9,13,16,28,39,40,42,54,73,86,89,94,103,113,121,123,124,128,136,139,139,144,151,149,140,131,126,126,123,117,104,84,61,42,37,40,45,46,43,41,37,33,33,32,22,9,2,-1,-9,-20,-24,-24,-29,-31,24,109,138,67,-25,-66,-68,-47,-36,-33,-37,-33,-22,-13,-9,-10,-12,-10,-6,-2,6,13,14,17,24,34,43,51,60,71,78,79,80,87,90,92,103,122,140,144,135,127,117,112,111,106,103,110,118,124,132,135,134,135,131,119,117,137,146,145,150,153,151,151,148,139,123,98,74,50,18,-13,-36,-55,-85,-127,-160,-167,-162,-155,-153,-165,-174,-165,-153,-144,-135,-131,-123,-102,-85,-82,-86,-87,-90,-94,-88,-78,-76,-86,-103,-125,-140,-143,-135,-97,-25,4,-65,-169,-219,-221,-204,-195,-187,-182,-175,-166,-153,-142,-141,-143,-142,-141,-137,-128,-123,-124,-120,-118,-120,-131,-172,-221,-241,-235,-221,-203,-184,-167,-154,-142,-130,-118,-107,-100,-107,-116,-115,-110,-101,-85,-72,-70,-81,-92,-95,-90,-84,-75,-63,-54,-48,-44,-41,-29,-14,-3,3,8,15,21,24,27,28,30,34,37,37,37,39,35,31,32,35,35,34,37,39,37,36,44,53,59,61,54,49,41,34,32,31,35,36,32,37,38,33,75,151,195,147,49,-8,-11,15,27,33,32,25,19,22,30,32,31,30,27,25,23,24,29,30,28,28,32,41,46,48,55,59,63,75,86,90,95,100,103,99,88,73,58,42,27,18,11,7,9,11,12,13,15,17,13,7,8,9,7,6,8,6,6,7,7,7,8,12,17,18,13,10,13,15,15,14,14,15,15,15,18,21,19,18,25,24,23,24,26,32,37,34,32,37,45,52,56,59,63,60,51,43,39,38,42,46,50,46,41,39,37,62,139,205,175,83,20,11,34,53,65,67,65,71,77,79,85,86,82,85,93,101,102,98,99,104,104,101,98,100,104,107,116,129,136,140,146,155,169,174,164,146,127,111,95,78,65,58,48,34,21,6,-10,-23,-33,-41,-40,-39,-49,-63,-84,-107,-123,-138,-155,-170,-185,-201,-216,-241,-265,-272,-280,-305,-335,-355,-367,-385,-414,-441,-459,-469,-474,-488,-508,-533,-554,-564,-574,-597,-630,-659,-674,-679,-686,-702,-722,-730,-731,-729,-730,-734,-739,-736,-722,-709,-706,-705,-699,-682,-648,-568,-418,-258,-205,-267,-294,-208,-111,-72,-59,-10,67,120,121,28,-5,56,147,203,216,176,87,30,80,180,204,108,16,-33,-64,-92,-113,-123,-124,-113,-101,-95,-89,-80,-75,-77,-85,-97,-108,-116,-124,-131,-136,-137,-128,-118,-115,-116,-106,-93,-82,-69,-56,-48,-39,-29,-20,-8,3,9,17,24,27,28,31,33,34,33,30,33,41,46,51,57,55,48,50,56,55,54,58,62,60,53,45,43,58,71,74,74,76,86,98,102,101,104,109,110,100,88,83,82,75,61,53,56,58,59,64,96,168,210,153,58,13,12,33,40,40,41,42,35,33,33,26,23,22,21,24,25,15,4,2,8,11,10,5,6,14,22,27,35,42,46,53,61,65,64,58,53,43,26,10,0,-4,-11,-15,-17,-20,-21,-22,-23,-18,-12,-7,-6,-10,-11,-5,-2,-6,-14,-23,-28,-29,-29,-27,-27,-28,-32,-39,-44,-41,-39,-44,-47,-41,-34,-33,-37,-31,-24,-22,-19,-16,-15,-15,-13,-6,2,9,16,17,6,-2,-3,-5,-7,-5,-3,-4,1,3,1,22,84,141,111,21,-35,-41,-16,-3,-2,-1,1,0,-1,4,12,19,20,14,9,10,12,13,17,19,17,16,18,19,25,32,32,36,43,47,56,64,66,68,69,62,50,36,28,24,17,11,10,8,6,7,7,13,21,20,19,26,28,26,22,18,14,15,18,19,23,26,16,2,-11,-22,-26,-21,-11,-10,-19,-17,-13,-9,-8,-17,-22,-21,-18,-17,-21,-25,-26,-25,-31,-40,-41,-34,-29,-28,-33,-37,-31,-18,-6,0,-1,-8,-13,-15,-18,-20,-20,-19,-26,-29,-23,-22,-7,53,128,142,43,-43,-64,-46,-32,-27,-24,-24,-24,-24,-25,-24,-23,-27,-24,-15,-9,-9,-13,-14,-8,-2,0,1,5,13,24,30,34,39,51,67,72,65,69,75,72,65,57,48,35,21,13,11,9,4,-1,-2,0,7,13,15,15,17,18,13,10,9,11,18,28,30,24,23,33,35,34,38,38,37,40,45,46,44,47,50,50,47,41,39,45,48,55,59,54,53,63,61,58,53,46,41,36,34,35,34,37,47,50,44,40,33,19,-2,-33,-64,-87,-95,-86,-76,-72,-68,-64,-54,-10,80,159,167,62,-11,-29,-21,-15,-11,-7,0,9,17,19,20,25,33,34,21,6,-13,-30,-41,-48,-56,-66,-69,-60,-53,-52,-49,-38,-22,-4,8,13,11,-2,-24,-62,-127,-205,-286,-372,-453,-529,-598,-656,-705,-740,-763,-776,-791,-804,-805,-782,-769,-762,-760,-772,-794,-819,-847,-885,-924,-950,-962,-956,-937,-910,-876,-842,-797,-746,-700,-659,-622,-588,-557,-534,-524,-528,-543,-563,-585,-629,-704,-729,-627,-473,-364,-303,-250,-193,-140,-100,-72,-47,-19,3,11,6,-1,0,8,20,59,130,155,79,-20,-60,-48,-26,-12,-10,-12,-4,4,6,-3,-5,14,39,61,84,109,133,161,197,225,242,256,263,264,264,267,277,291,305,319,336,354,378,396,402,406,408,400,388,364,326,296,273,237,197,169,146,132,128,130,137,146,155,167,182,200,222,242,263,286,306,320,321,315,322,326,331,345,363,383,403,417,421,415,394,359,321,283,248,223,190,143,104,95,108,119,120,107,72,17,-35,-77,-114,-151,-156,-142,-323,-646,-942,-1126,-1238,-1362,-1542,-1685,-1720,-1744,-1573,-797,106,419,395,389,404,415,431,382,216,-3,-186,-325,-445,-541,-616,-671,-714,-744,-749,-728,-701,-670,-643,-600,-550,-508,-476,-455,-433,-415,-400,-373,-346,-321,-296,-272,-249,-231,-208,-189,-173,-143,-115,-106,-118,-133,-141,-145,-125,-80,-26,24,74,121,152,184,244,315,387,453,514,576,630,682,733,781,823,847,858,864,876,895,913,930,939,934,911,861,753,587,421,276,92,-159,-398,-537,-595,-643,-720,-821,-916,-992,-1070,-1138,-1169,-1173,-1174,-1179,-1183,-1181,-1164,-1131,-1095,-1064,-1034,-993,-946,-911,-868,-810,-757,-700,-639,-591,-545,-489,-448,-423,-387,-355,-351,-377,-409,-424,-418,-404,-379,-351,-331,-301,-264,-219,-167,-120,-78,-36,7,56,97,112,118,135,156,180,201,208,186,144,106,64,9,-45,-106,-176,-232,-270,-308,-356,-413,-467,-499,-521,-538,-544,-542,-545,-563,-577,-569,-551,-534,-522,-496,-428,-343,-324,-403,-484,-538,-549,-494,-425,-373,-322,-276,-255,-253,-269,-299,-335,-385,-451,-469,-381,-270,-182,-121,-69,-22,-11,-13,30,86,140,194,240,275,312,353,391,427,457,481,503,518,530,543,547,551,566,594,629,663,697,729,756,777,790,794,793,794,803,808,803,792,780,775,778,776,767,749,726,710,695,679,659,635,621,614,593,564,545,532,506,476,453,432,412,389,367,355,342,315,300,326,378,391,288,183,145,155,172,178,166,149,138,133,129,118,107,99,97,88,68,60,58,42,33,47,57,43,26,23,25,22,28,36,43,56,64,75,95,104,86,62,53,47,37,27,22,18,10,-4,-22,-34,-37,-30,-33,-43,-49,-50,-41,-39,-51,-55,-51,-46,-51,-55,-52,-55,-61,-62,-61,-56,-51,-57,-64,-59,-55,-51,-42,-37,-43,-49,-53,-63,-73,-69,-63,-64,-64,-66,-71,-64,-25,44,84,37,-52,-104,-108,-78,-62,-60,-61,-59,-58,-63,-68,-67,-62,-55,-48,-51,-60,-63,-53,-47,-48,-45,-42,-45,-38,-24,-12,-1,10,15,19,35,49,55,64,68,62,52,40,30,21,13,8,6,7,6,-3,-10,-2,0,-12,-18,-21,-22,-19,-16,-15,-15,-11,-8,-17,-24,-21,-14,-10,-14,-24,-26,-20,-19,-22,-19,-12,-9,-7,3,11,6,-1,-6,-7,-2,2,-4,-11,-5,1,-1,-8,-2,38,110,144,83,-16,-63,-49,-24,-20,-21,-21,-22,-27,-33,-36,-36,-29,-23,-27,-31,-27,-22,-21,-25,-23,-20,-24,-26,-15,-12,-13,-8,2,11,17,24,36,47,49,38,29,10,-25,-63,-91,-115,-128,-129,-131,-130,-127,-122,-109,-98,-92,-86,-85,-83,-79,-72,-61,-57,-59,-57,-51,-47,-49,-51,-44,-35,-32,-29,-21,-14,-10,-7,-6,-7,-4,0,2,5,9,11,14,22,34,43,46,43,37,29,24,21,20,16,15,21,24,22,21,46,112,163,124,21,-47,-52,-20,-8,-6,-12,-14,-11,-12,-13,-15,-16,-9,-7,-7,-7,-8,-11,-15,-13,-11,-11,-6,3,6,4,16,27,29,35,52,61,60,64,68,61,45,30,22,15,4,-2,-6,-9,-6,-3,-5,-6,2,7,2,-2,1,9,11,2,1,10,6,-3,-5,-2,1,0,-6,-13,-19,-20,-11,-14,-18,-15,-13,-14,-15,-17,-22,-23,-27,-41,-50,-50,-50,-49,-47,-51,-52,-36,-33,-45,-47,-43,-42,-58,-76,-80,-72,-69,-68,-77,-83,-80,-80,-52,24,78,32,-61,-108,-110,-87,-69,-55,-48,-46,-43,-40,-41,-40,-36,-39,-42,-41,-38,-34,-31,-30,-28,-25,-21,-15,-7,6,21,27,33,48,61,71,88,101,109,123,127,113,104,91,82,77,71,70,72,71,78,86,82,76,84,88,86,89,90,93,95,90,88,90,84,83,89,90,91,88,86,85,80,75,64,54,45,31,16,0,-16,-23,-27,-32,-39,-53,-61,-64,-69,-72,-73,-77,-79,-78,-77,-71,-64,-66,-67,-57,-52,-54,-59,-63,-66,-71,-81,-86,-88,-88,-89,-94,-99,-100,-88,-40,33,55,-20,-117,-149,-123,-101,-96,-91,-86,-80,-75,-75,-73,-72,-74,-66,-65,-70,-68,-63,-64,-64,-60,-53,-46,-40,-38,-35,-20,-2,6,16,30,38,43,51,56,59,60,52,44,41,37,33,28,21,24,29,29,26,26,26,32,39,40,38,39,41,40,38,32,30,36,39,35,39,42,33,28,35,36,19,16,22,21,19,17,13,15,25,27,18,17,19,17,17,13,10,24,32,23,11,7,5,9,16,12,1,0,8,10,6,5,8,10,6,-4,-15,-17,-16,-19,-25,-29,-31,-33,-37,-38,-6,62,108,63,-31,-88,-94,-63,-36,-29,-35,-40,-49,-51,-37,-31,-32,-35,-39,-40,-38,-44,-50,-51,-46,-43,-43,-38,-31,-30,-31,-25,-12,0,14,23,30,39,49,57,58,47,36,24,12,2,-6,-10,-7,-2,-1,2,5,3,0,2,6,6,10,19,20,18,23,24,18,15,20,22,17,16,16,13,8,7,0,-4,1,8,10,1,-2,3,9,12,13,10,6,3,3,7,8,7,6,0,-5,-7,-15,-22,-24,-25,-22,-21,-22,-20,-19,-18,-10,-8,-9,-9,-12,-21,-25,-22,-17,-18,-23,-20,-18,-21,8,83,127,77,-23,-82,-84,-38,-21,-17,-17,-19,-23,-23,-25,-32,-35,-35,-33,-30,-32,-37,-33,-25,-22,-25,-27,-23,-13,-2,4,12,26,42,59,74,87,96,102,104,101,95,87,81,74,67,62,49,40,47,59,63,57,53,57,59,56,51,50,54,56,54,51,50,52,53,46,38,27,23,22,14,2,-1,-6,-7,-5,-7,-2,2,5,4,-7,-12,-1,3,-5,-11,-5,-2,-4,-3,-7,-12,-9,-7,-11,-14,-13,-9,-8,-23,-27,-24,-22,-19,-15,-14,-9,-7,-31,-48,-44,-41,-58,-70,-72,-70,-73,-83,-88,-89,-47,30,58,-26,-143,-183,-158,-128,-115,-114,-116,-110,-95,-87,-91,-92,-93,-87,-79,-85,-98,-100,-85,-76,-78,-75,-72,-76,-78,-67,-59,-50,-38,-21,2,20,33,53,70,72,76,80,71,59,54,46,32,29,33,30,29,33,30,27,30,32,36,39,40,42,38,35,40,37,31,26,23,20,14,12,16,10,1,-2,0,5,7,5,2,1,0,1,4,6,11,13,4,-2,1,3,-2,-3,5,11,15,22,25,10,1,2,-2,-11,-13,-7,-13,-16,-8,-6,-3,29,99,128,51,-55,-89,-65,-42,-28,-24,-25,-17,-14,-20,-25,-26,-24,-17,-16,-16,-10,-5,-7,-12,-10,-9,-11,-8,-2,0,5,14,17,26,38,50,61,68,75,84,86,73,57,52,50,40,22,12,22,33,26,17,16,18,19,25,27,26,25,28,26,19,16,12,8,4,3,9,16,14,6,0,-3,-4,0,-2,-7,-9,-8,-11,-14,-7,-4,-11,-12,0,2,-4,-8,-5,-11,-16,-10,-8,-9,-8,-10,-15,-24,-34,-35,-33,-38,-41,-42,-43,-29,23,88,98,-8,-89,-104,-80,-59,-51,-49,-45,-44,-48,-49,-45,-42,-39,-44,-45,-36,-35,-42,-43,-38,-34,-28,-21,-17,-13,-7,-2,2,12,24,38,53,62,67,70,71,69,57,46,42,31,17,16,14,8,7,9,17,22,16,17,21,15,11,15,21,22,13,9,12,11,15,22,24,24,22,16,14,16,17,12,7,1,2,7,10,9,10,10,4,3,9,10,1,-3,0,-3,-5,-2,-2,-4,-6,-3,0,-2,-5,2,4,-4,-9,-17,-27,-24,-16,-15,-25,-30,-29,-28,-30,-14,49,115,117,-15,-91,-100,-64,-44,-36,-35,-39,-42,-46,-48,-47,-53,-56,-51,-44,-36,-34,-42,-45,-38,-36,-41,-38,-31,-27,-22,-13,-6,2,16,30,44,53,65,75,78,73,67,60,46,30,22,20,19,22,19,17,21,24,25,24,24,25,28,31,33,27,17,16,25,24,22,27,28,16,13,21,26,23,20,17,11,9,9,5,7,9,12,13,9,8,4,0,-1,-4,-9,-11,-8,-11,-12,-6,-5,-15,-16,-12,-18,-16,-15,-23,-24,-11,-8,-9,-3,-13,-37,-45,-44,-54,-57,-54,-55,-56,-52,-48,-36,9,71,85,-1,-90,-115,-93,-67,-52,-51,-52,-43,-42,-46,-47,-47,-49,-47,-44,-41,-40,-43,-44,-43,-42,-39,-43,-47,-37,-19,-12,-9,-1,9,26,42,53,63,66,60,65,69,50,34,26,21,18,12,7,10,12,14,15,14,21,24,20,19,25,26,24,22,25,28,29,27,28,27,23,22,31,24,13,15,21,22,14,7,6,9,11,15,21,26,24,18,17,17,16,16,17,17,16,12,9,9,9,12,12,9,5,8,14,12,6,8,15,14,7,-4,-25,-37,-39,-40,-50,-54,-52,-62,-76,-63,-9,45,48,-73,-151,-160,-126,-114,-109,-102,-111,-124,-126,-120,-117,-116,-124,-132,-128,-126,-127,-125,-127,-129,-119,-111,-109,-104,-101,-102,-94,-77,-57,-44,-42,-36,-21,-10,-6,-3,-2,0,0,-6,-20,-27,-28,-27,-22,-16,-13,-11,-9,-11,-7,0,-3,-6,2,4,-1,0,1,3,9,13,14,12,8,7,11,12,5,4,7,4,7,18,19,4,1,12,16,14,10,5,4,14,22,25,20,15,22,28,28,26,24,20,12,10,12,12,18,27,23,8,4,34,98,145,111,16,-49,-54,-11,13,19,14,11,15,19,19,20,26,23,21,26,23,4,-19,-31,-34,-38,-45,-52,-53,-51,-46,-35,-27,-22,-10,0,7,16,22,24,22,15,1,-16,-24,-29,-37,-41,-38,-36,-38,-40,-37,-32,-33,-31,-24,-19,-20,-17,-10,-8,-10,-5,-7,-10,-12,-17,-23,-24,-22,-20,-20,-24,-25,-14,-12,-18,-13,-7,-9,-12,-12,-7,-5,-10,-11,-8,-11,-6,0,3,8,6,2,4,9,13,10,0,-9,-10,-5,-4,-3,2,0,-10,-16,-1,47,116,136,57,-34,-59,-38,-19,-7,-1,-3,-2,-1,-6,-7,4,6,2,2,5,6,6,6,5,3,12,25,27,21,30,40,44,46,47,50,61,73,79,82,80,78,78,73,57,35,26,29,30,24,19,17,15,18,26,29,27,28,31,32,32,34,38,40,39,38,46,53,50,48,53,52,48,41,26,15,19,32,41,37,30,26,25,24,25,24,21,19,20,21,19,17,15,11,3,-5,-12,-15,-15,-16,-14,-6,-4,-15,-20,-23,-28,-33,-33,-31,-40,-57,-66,-80,-118,-155,-158,6,235,338,249,124,89,129,162,166,155,138,126,100,60,52,89,94,67,43,10,-15,-25,-28,-25,-22,-33,-47,-58,-78,-88,-66,-42,-68,-116,-128,-126,-154,-177,-179,-160,-146,-143,-165,-206,-249,-286,-331,-363,-329,-261,-235,-224,-184,-149,-147,-209,-258,-275,-295,-318,-307,-285,-274,-267,-270,-282,-297,-306,-304,-299,-294,-292,-293,-286,-275,-261,-246,-230,-220,-217,-208,-194,-186,-176,-161,-149,-135,-122,-116,-103,-82,-69,-55,-37,-30,-31,-27,-22,-15,-2,5,12,22,26,30,35,41,52,59,54,42,31,28,29,30,31,33,32,26,24,27,44,106,168,169,49,-27,-46,-24,1,11,17,20,11,-3,-6,0,3,-2,-20,-31,-33,-32,-30,-32,-40,-45,-45,-43,-41,-37,-33,-32,-33,-34,-26,0,46,92,103,77,44,1,-34,-16,42,84,90,78,62,45,40,37,23,8,-7,-21,-22,-15,0,35,81,118,140,147,151,163,174,176,178,184,189,191,190,195,203,206,203,203,202,195,176,160,151,144,143,142,131,117,111,118,121,113,98,87,86,81,69,61,58,55,46,36,35,39,57,110,159,122,17,-55,-64,-33,-22,-20,-18,-11,4,16,17,24,36,42,47,44,31,28,35,31,22,25,38,43,35,32,48,58,61,62,65,74,76,64,51,49,66,44,-20,-46,-15,1,-28,-86,-129,-139,-134,-128,-120,-119,-164,-207,-225,-226,-208,-171,-125,-94,-76,-61,-43,-28,-24,-15,2,13,14,17,26,33,35,37,39,40,40,45,50,48,47,45,41,46,60,69,63,58,68,79,80,73,66,64,66,62,60,65,66,66,68,66,65,94,166,228,192,96,42,39,70,87,102,112,113,109,100,95,96,95,92,95,94,90,96,106,107,109,117,128,140,143,147,154,164,179,190,205,213,184,143,135,138,101,40,-15,-65,-111,-138,-158,-180,-191,-198,-216,-229,-227,-224,-234,-247,-249,-244,-243,-243,-244,-243,-242,-248,-253,-254,-246,-243,-240,-236,-239,-239,-235,-234,-231,-226,-229,-237,-233,-219,-212,-213,-214,-202,-186,-178,-174,-168,-159,-154,-148,-132,-110,-92,-78,-67,-52,-33,-23,-33,-44,-42,-35,-30,-30,-22,-12,-10,-8,-3,17,91,177,194,107,43,35,76,107,126,138,147,154,167,184,199,211,223,233,252,281,300,292,264,232,202,184,182,185,179,167,156,150,149,172,192,197,189,188,279,375,396,341,268,206,164,126,88,58,41,30,20,16,20,14,0,-8,-10,-5,-4,-12,-11,-10,-13,-13,-14,-13,-12,-13,-8,-4,-9,-13,-14,-19,-27,-28,-24,-25,-22,-16,-15,-20,-25,-20,-12,-17,-29,-35,-36,-29,-26,-27,-25,-26,-30,-26,-25,-24,-19,-21,-29,-31,-20,-14,-20,-33,-34,-29,-41,-45,-39,-43,-49,-47,-45,-51,-57,-47,-2,70,101,41,-54,-99,-100,-71,-60,-54,-50,-54,-63,-65,-53,-52,-76,-83,-78,-74,-73,-69,-67,-79,-87,-76,-54,-34,-20,-8,10,28,36,46,68,76,70,60,45,37,41,42,21,-2,-20,-30,-34,-37,-40,-43,-41,-37,-41,-42,-32,-30,-30,-25,-24,-21,-19,-21,-18,-12,-10,-5,-2,0,6,11,16,25,34,38,41,48,53,50,49,60,68,69,71,66,61,73,95,103,106,107,85,81,103,117,115,113,125,142,162,175,172,170,176,180,185,193,201,212,224,214,175,131,101,84,72,55,33,23,17,14,36,80,164,242,247,122,42,20,26,56,139,239,291,296,303,335,358,344,307,266,214,163,136,118,93,67,42,26,17,8,0,-4,-5,0,19,57,97,107,86,67,49,35,27,16,-4,-28,-45,-56,-67,-70,-57,-52,-60,-68,-69,-66,-61,-58,-56,-53,-50,-50,-50,-50,-50,-48,-47,-47,-47,-46,-42,-37,-32,-30,-30,-27,-25,-26,-27,-25,-23,-22,-26,-23,-16,-13,-14,-19,-23,-20,-18,-21,-22,-20,-14,-4,5,10,5,-2,-6,-4,-2,-7,-14,-17,-12,-10,-13,-8,25,93,125,66,-26,-71,-56,-23,-2,1,-3,-5,0,7,5,1,6,14,20,27,33,34,26,23,25,25,19,14,13,28,35,28,26,40,46,47,55,63,69,71,70,64,46,23,-1,-28,-42,-43,-61,-93,-113,-120,-118,-117,-121,-124,-121,-116,-110,-97,-78,-65,-59,-52,-48,-51,-50,-48,-62,-78,-84,-81,-70,-60,-55,-48,-44,-38,-28,-26,-35,-36,-28,-19,-15,-19,-21,-15,-7,0,6,5,3,9,23,30,22,11,2,-2,-6,-8,-9,-5,-12,-21,-17,-9,19,86,130,86,-8,-68,-71,-25,-17,-60,-101,-118,-120,-98,-83,-78,-72,-62,-59,-63,-58,-44,-38,-35,-32,-31,-32,-28,-26,-24,-19,-10,0,12,24,33,42,52,56,63,68,62,54,42,29,13,1,0,5,9,10,10,11,7,4,6,8,9,12,16,17,13,10,9,8,13,17,18,15,12,11,13,13,12,14,16,17,16,12,7,12,20,15,10,17,22,25,28,27,24,20,16,14,13,18,24,21,15,11,11,17,23,22,21,27,28,24,22,21,14,3,-1,1,3,3,0,-1,29,96,152,124,27,-40,-45,-15,-4,3,7,11,12,1,-6,-5,-3,1,8,9,0,1,2,-6,-8,-4,-1,5,13,10,6,15,30,40,47,53,61,69,77,80,69,56,51,43,29,17,9,2,-1,-3,-11,-19,-20,-27,-36,-37,-29,-31,-32,-24,-18,-17,-23,-29,-31,-20,-12,-16,-18,-6,-4,-17,-21,-12,-7,-10,-20,-33,-34,-14,-7,-12,-17,-16,-14,-12,-11,-11,-10,-7,-2,0,-4,-7,-8,-11,-15,-16,-7,-3,-7,-7,-6,-9,-5,0,0,0,6,10,9,1,-6,-7,-2,-7,-13,-15,-8,-3,-2,2,39,114,154,88,-22,-67,-42,-15,-5,-2,-6,-7,-4,-9,-13,-14,-5,0,-4,-6,-4,-3,-5,-14,-20,-11,0,1,-5,-6,11,21,28,40,49,51,53,61,71,72,59,55,56,43,25,12,2,0,1,0,0,2,0,0,0,-3,-5,-4,1,7,10,11,14,10,3,2,6,4,-4,-7,-3,-1,1,2,-2,-3,-1,-5,-6,-2,-6,-9,-2,5,7,7,6,1,0,2,1,10,19,16,14,10,2,-2,-5,-9,-8,-3,1,2,-6,-13,-1,51,114,124,30,-49,-65,-36,-15,-8,-7,-9,-3,1,-2,-8,-9,-1,5,7,8,3,-1,3,7,3,2,7,9,14,22,24,22,33,42,44,48,56,61,63,68,70,57,40,31,17,-1,-8,-6,-13,-17,-11,-6,-5,-3,-7,-14,-9,0,0,-3,0,5,1,-2,-2,0,7,10,4,3,6,5,3,7,11,9,11,14,9,3,2,8,12,13,12,14,15,8,3,11,25,31,29,27,27,26,20,16,17,19,23,17,6,14,47,114,172,141,43,-26,-36,-7,15,23,23,16,4,-1,3,13,15,7,3,4,4,4,3,0,-1,-4,-12,-19,-20,-21,-18,-7,4,15,24,27,25,36,52,57,54,46,33,21,9,1,-4,-6,-5,-8,-14,-12,-10,-11,-4,-2,-6,-5,-4,-10,-18,-25,-26,-18,-21,-31,-34,-29,-27,-32,-34,-34,-37,-40,-38,-34,-31,-32,-34,-37,-39,-35,-30,-31,-31,-30,-32,-33,-33,-29,-24,-27,-32,-37,-39,-29,-18,-21,-34,-38,-35,-37,-38,-34,-34,-32,-24,-18,-21,-14,21,88,137,94,-8,-66,-67,-39,-28,-20,-18,-22,-26,-31,-32,-31,-26,-18,-22,-34,-40,-39,-33,-28,-23,-17,-14,-20,-22,-8,3,7,10,14,19,30,40,41,41,48,52,49,37,24,13,5,0,-7,-10,-5,-4,-8,-7,-3,-2,0,0,-4,0,6,10,13,11,6,5,7,9,5,2,4,5,6,7,7,10,11,4,1,0,3,9,13,11,8,10,15,17,13,10,14,18,12,4,7,15,16,15,19,19,15,13,24,29,19,12,14,11,8,10,4,-1,2,4,3,19,61,128,156,89,-7,-45,-29,-1,15,19,21,25,27,25,24,31,35,36,34,41,47,43,38,36,35,36,37,42,53,61,63,68,78,87,91,88,76,54,37,30,28,19,1,-18,-34,-38,-44,-52,-50,-48,-61,-65,-56,-48,-44,-45,-47,-41,-33,-27,-25,-31,-37,-31,-16,-14,-22,-23,-18,-12,-7,-2,-1,-6,-7,-9,-14,-15,-9,-3,0,5,10,11,7,6,4,3,9,7,0,-11,-23,-33,-37,-40,-48,-51,-49,-48,-44,-36,-31,-36,-48,-56,-59,-68,-78,-80,-81,-83,-85,-81,-75,-72,-42,32,81,31,-65,-111,-99,-80,-66,-54,-44,-38,-35,-34,-38,-39,-33,-30,-29,-22,-16,-15,-12,-4,0,-3,-4,0,1,1,8,24,36,42,54,66,67,74,93,97,87,86,79,60,39,27,22,18,22,25,20,11,7,12,10,4,1,-1,-4,-2,4,9,10,13,21,25,19,11,15,23,17,11,16,17,0,-10,-16,-22,-25,-27,-28,-28,-23,-18,-17,-19,-22,-16,-6,4,7,0,-10,-19,-24,-22,-17,-18,-20,-15,-7,0,0,25,100,144,86,-10,-58,-47,-17,0,3,1,6,16,21,23,28,29,22,27,35,36,35,38,39,40,43,44,46,53,55,50,55,71,81,83,92,105,109,108,103,90,76,59,45,37,27,17,12,9,7,9,8,-1,-10,-7,-2,-3,0,3,-3,-13,-18,-20,-20,-19,-18,-19,-22,-27,-38,-46,-47,-39,-36,-37,-38,-35,-25,-19,-15,-17,-26,-29,-18,-11,-10,-8,-2,2,11,15,3,-8,-5,-3,-15,-21,-19,-21,-18,-7,-3,2,44,115,136,53,-45,-78,-58,-40,-32,-25,-21,-19,-18,-21,-23,-20,-15,-13,-16,-23,-28,-29,-19,-6,-2,-9,-12,-4,5,8,14,26,33,41,54,66,69,76,84,73,58,51,43,30,17,9,4,-1,-3,1,2,0,1,5,5,4,5,6,9,14,15,11,15,13,10,13,15,14,10,8,8,10,13,14,12,9,6,4,-1,-4,-1,0,-1,0,1,0,6,7,-2,-4,0,0,0,-3,-12,-7,7,18,25,17,0,-3,3,0,-2,0,-9,-21,-31,-36,-35,-17,33,100,116,31,-56,-77,-52,-28,-15,-18,-23,-12,-1,1,0,0,3,12,15,1,-8,0,9,10,16,21,20,21,27,35,44,52,58,65,75,87,95,97,93,89,88,84,68,48,36,37,38,25,12,-3,-20,-26,-24,-25,-25,-23,-19,-14,-11,-7,0,1,-4,-5,0,2,0,4,10,14,10,0,-3,1,7,10,12,10,7,7,8,13,21,23,10,1,0,5,13,15,8,3,1,0,-5,-12,-19,-15,0,2,-11,-13,-8,-11,-12,-10,-8,-8,-10,-12,-1,10,5,-6,-11,-14,-20,-24,-29,-32,-31,-30,-35,-36,5,83,127,73,-24,-69,-57,-37,-28,-21,-18,-22,-17,-11,-18,-21,-18,-17,-15,-13,-15,-15,-14,-11,-5,0,3,8,9,13,23,30,35,46,60,73,79,82,83,80,78,74,66,50,32,22,19,18,12,1,-3,-6,-10,-10,-17,-25,-26,-21,-13,-9,-10,-14,-17,-13,-5,2,8,13,14,6,4,9,12,8,2,5,12,14,14,13,11,13,22,25,22,24,26,21,19,23,26,30,34,28,25,32,36,34,36,32,25,23,25,30,36,30,19,17,31,41,44,34,21,19,29,21,16,27,35,36,34,33,55,124,180,135,34,-20,-22,15,32,21,0,-7,-6,-16,-28,-27,-25,-29,-38,-48,-51,-44,-43,-56,-57,-54,-58,-60,-60,-61,-55,-45,-40,-32,-22,-18,-16,-9,0,3,-3,-8,-12,-26,-46,-57,-59,-65,-71,-72,-68,-64,-65,-70,-73,-69,-61,-60,-67,-57,-47,-50,-53,-47,-40,-39,-36,-34,-37,-38,-37,-38,-35,-34,-36,-38,-33,-23,-22,-27,-23,-22,-34,-38,-40,-40,-42,-45,-41,-42,-49,-47,-43,-44,-47,-49,-50,-53,-50,-43,-39,-41,-45,-46,-41,-39,-13,60,112,63,-33,-78,-60,-33,-20,-12,-11,-13,-14,-10,-1,0,0,4,6,10,16,15,16,22,30,31,28,40,47,47,54,62,68,79,86,86,92,101,103,100,101,96,84,71,55,42,41,40,39,38,30,26,30,31,28,26,22,20,24,23,20,26,28,17,16,28,24,14,17,26,27,20,12,9,11,7,4,13,14,0,2,10,11,10,13,13,9,12,14,9,4,7,10,5,2,16