F-0-01,125,II,405,-66,-101,-105,6,-39,-80,-63,-18,94,266,394,493,622,708,787,815,812,842,846,840,876,848,819,751,679,556,514,436,345,253,219,260,210,188,216,300,319,308,325,347,307,295,197,173,141,128,157,116,152,121,116,125,112,222,275,186,217,219,50,-57,-213,-259,-252,-345,-266,-177,-115,-1,42,92,134,29,-45,-75,-207,-243,-229,-276,-355,-370,-222,-169,-176,-127,-84,-98,-35,-88,-202,-203,-139,-206,-216,6,33,-200,-231,-157,-191,-168,-146,-147,-100,-188,-221,-142,-169,-189,-220,-204,-187,-146,-117,-178,-126,-124,-162,-104,-158,-187,-84,-47,-77,-2,2,-35,25,2,32,49,12,91,124,134,140,87,79,162,166,143,210,213,143,199,223,256,265,221,167,161,180,149,139,106,50,92,113,108,178,224,279,299,236,230,167,121,92,58,-16,-44,-6,15,44,105,123,21,-1,33,-104,-39,16,17,-7,0,34,39,-136,-254,-259,-240,-330,-331,-262,-191,-158,-169,-40,8,7,51,36,52,27,-39,74,213,229,165,38,14,38,35,48,-10,-42,21,24,-71,-152,-167,-89,-39,-135,-160,-61,-104,-173,-121,-106,-126,-66,-87,-94,-38,-54,-20,1,11,33,42,74,131,115,144,161,188,200,192,230,235,114,104,226,194,79,44,114,76,54,107,128,97,150,163,59,101,107,47,12,-12,-82,-101,-78,-129,-138,-128,-120,-125,-47,12,-58,-100,-65,-58,-98,-112,-65,-18,13,17,29,111,151,135,171,189,220,195,182,158,141,196,154,90,66,83,78,81,8,-2,30,12,70,205,253,189,71,41,76,19,17,96,100,36,0,59,79,50,51,27,85,88,84,63,52,92,156,132,83,42,63,29,-11,27,-22,-36,-3,-1,-107,-121,-73,-149,-156,-118,-153,-165,-189,-218,-176,-151,-214,-237,-177,-156,-160,-105,-94,-104,-100,-132,-142,-60,-94,-110,-80,-68,-59,-77,-67,-39,-35,-45,-5,6,-26,13,15,13,28,57,58,41,88,58,25,38,72,91,61,57,65,39,48,70,73,74,40,93,131,108,132,122,101,100,98,99,84,96,98,88,111,197,251,270,201,89,73,134,135,142,124,122,158,117,128,119,141,63,33,107,120,77,81,4,-94,-95,-110,-184,-200,-319,-511,-552,-546,-623,-691,-805,-845,-779,-712,-682,-645,-629,-627,-663,-652,-667,-609,-590,-621,-583,-651,-696,-633,-632,-667,-564,-560,-589,-619,-603,-566,-517,-477,-472,-475,-464,-467,-452,-424,-415,-435,-422,-419,-358,-293,-298,-286,-240,-218,-296,-258,-212,-224,-219,-256,-215,-163,-162,-123,-102,-110,-126,-138,-142,-104,-92,-103,-83,-56,-49,-58,-81,-46,-36,-41,-70,-77,-14,-13,-42,22,119,159,165,39,-34,37,58,38,60,61,47,73,86,115,106,103,100,120,146,159,147,167,189,183,186,180,259,217,210,316,314,364,376,400,425,408,428,450,446,448,423,424,386,403,408,360,344,388,390,361,372,367,366,381,360,357,371,339,331,321,301,275,261,249,256,259,234,219,154,132,133,124,128,106,75,86,87,71,77,55,52,57,43,19,8,-17,-1,3,-25,-43,-54,-37,-32,-68,-69,-49,-26,-64,-68,-57,-77,-91,-73,-71,-95,-79,-71,-83,-93,8,52,104,107,-81,-120,-84,-44,-30,-47,-51,-45,-62,-26,-14,-36,-50,-56,-1,-17,-20,-9,-45,-46,1,27,28,24,23,47,41,28,25,47,26,21,38,-22,5,6,-26,-35,-31,-71,-30,-28,-73,-19,-72,-92,-89,-70,-67,-72,-66,-87,-41,-21,-78,-91,-79,-76,-88,-94,-63,-72,-83,-85,-72,-65,-78,-48,-37,-68,-57,-45,-51,-51,-54,-46,-24,-44,-59,5,-36,-57,-17,-39,-23,-8,3,14,-15,0,-15,-15,-23,-3,7,20,4,1,-13,-26,-16,-4,-18,-33,-11,37,35,151,193,-2,-63,-31,-22,-24,-14,2,-7,-9,-10,5,-10,-23,-15,-6,0,-15,-52,-9,6,12,16,23,32,48,14,50,82,57,53,72,63,70,41,30,44,49,13,8,45,46,16,40,43,4,3,31,24,5,20,22,-8,42,67,-5,-15,34,36,41,35,30,35,19,17,51,72,41,35,69,48,4,22,30,6,9,-2,5,12,0,43,59,-28,-32,23,11,-5,-29,-6,-5,-24,42,3,-4,2,-40,-70,-53,-56,-55,-68,-49,-38,-64,32,129,88,-25,-109,-76,-22,-20,-56,-41,-19,-7,-36,-15,-7,-48,-24,-16,-17,-3,-9,-13,25,41,30,48,55,39,60,57,104,68,55,80,103,113,83,68,42,11,26,43,13,-4,-7,13,38,-15,-31,-8,-18,2,-20,-10,-2,-12,1,10,-5,-10,36,17,15,3,-7,39,45,-7,-10,15,0,20,6,40,21,1,12,20,17,16,-5,-33,-35,-37,6,-7,-14,11,20,21,3,-1,43,11,6,42,35,11,-21,-25,-30,6,15,-63,-38,-11,6,114,185,158,65,-63,-27,6,0,20,35,24,11,12,-14,-15,24,31,33,2,47,63,-13,16,42,-3,-5,38,22,45,48,59,72,73,58,46,4,21,28,-1,0,-11,-22,-53,-38,-54,-63,-67,-62,-58,-55,-41,-31,-35,-36,-44,-66,-69,-58,-47,-46,-58,-34,-56,-48,-67,-73,-51,-60,-64,-37,-45,-67,-49,-36,-53,-67,-55,-50,-33,-18,-51,-20,-12,-58,-15,-9,-17,-22,-25,-24,-31,-33,3,13,-3,2,22,33,23,33,36,15,25,0,-10,2,-42,12,35,-18,-27,84,179,197,91,-24,7,33,-2,-5,1,-7,21,13,11,26,33,42,48,34,30,86,96,80,85,68,94,148,118,105,143,114,96,88,75,90,94,83,116,67,26,7,38,44,-33,-18,-1,-28,-35,16,-17,-45,0,7,-31,-33,-23,-16,-24,-31,-19,-35,10,-23,-30,-4,6,-33,-41,-25,-20,-50,-53,-6,-28,-39,-20,-23,4,-24,-32,-5,-2,-15,-31,-8,6,-7,16,29,44,38,34,47,49,24,17,51,72,48,16,10,27,28,15,-4,-36,7,12,-43,68,205,227,66,-54,-62,18,-5,-10,-5,-26,-10,-24,6,20,9,-12,-16,16,-2,-15,1,6,-19,38,46,26,50,68,74,58,84,90,62,69,41,30,19,11,-4,-16,-34,-27,-23,-17,-61,-36,-14,-53,-31,-30,-60,-10,-18,-1,-21,-25,28,6,0,33,34,9,29,33,12,-4,14,27,-19,-29,13,3,5,-13,17,22,-30,-7,-4,0,-13,-36,-5,0,5,22,30,32,16,2,-7,-21,15,-7,-10,-29,-39,-9,-18,25,98,123,78,-50,-100,-28,-8,-42,-24,-23,-38,0,6,-18,-6,12,19,-49,-56,20,-3,-13,7,0,17,37,57,64,86,75,66,68,51,60,42,29,41,17,13,18,-40,-48,-26,-29,-25,-47,-25,-24,-26,-10,-15,-8,-3,-11,24,33,-16,-27,0,2,-9,-12,13,14,-19,-32,-15,-9,0,9,-15,-19,-1,-23,-34,-2,-7,15,5,4,31,-29,25,59,4,-4,7,9,-12,-8,-2,3,-9,-15,28,40,114,147,53,-39,-57,-17,9,24,-21,-32,22,2,-12,22,39,26,13,27,31,45,46,24,29,57,68,69,62,84,86,71,106,69,67,88,61,53,19,12,25,15,5,9,-12,-31,-1,-16,-26,-12,-7,-16,-9,-16,-17,-3,-2,-4,-6,1,-6,-8,9,-2,3,-12,-13,-4,-15,-30,-34,12,-10,-41,-6,4,-19,-5,-39,-29,-9,-32,-36,18,6,6,11,29,12,-2,29,6,18,27,0,-1,9,-9,7,19,-29,-30,10,25,103,163,117,0,-31,-6,-3,5,7,-22,-10,-4,-16,-1,-17,-39,11,29,3,0,16,11,2,27,17,51,79,-11,-12,47,41,44,33,7,50,73,48,29,11,6,15,-37,-34,-43,-16,-27,-32,-9,-23,-29,-14,-31,-18,-1,-17,-49,-6,12,-23,-28,3,-18,16,30,0,-21,-14,2,13,-5,-16,6,17,-30,20,31,-42,-21,3,15,-14,-33,30,14,-20,6,23,9,-4,-8,-12,2,-3,1,9,-3,-20,13,31,-27,-29,36,12,-37,0,26,11,17,22,-19,10,28,-29,-36,-17,-30,-5,9,29,113,183,73,-43,-51,-12,-13,6,9,-16,-48,-34,-1,4,-15,-24,18,-9,-21,23,0,-7,37,41,11,31,21,77,95,23,51,65,68,54,51,41,40,62,27,5,-10,8,-53,-60,-3,-23,-14,-9,-5,-18,-28,-6,-2,14,21,12,9,32,42,16,2,6,-12,-4,-2,-2,-16,-37,-14,-47,-41,-43,0,-37,-47,-12,-45,-46,-35,-60,-19,-18,-38,-29,-31,-34,-45,-16,-13,-60,-67,-73,-6,1,-10,-29,-34,-26,-38,-22,-35,-39,0,-5,-16,-19,-10,-25,7,18,-31,22,40,22,27,38,34,47,-14,-20,24,5,-5,7,20,10,75,190,225,88,6,-7,27,34,23,11,19,1,28,54,23,46,59,4,0,52,53,13,42,47,38,78,98,59,44,98,118,98,107,95,82,58,52,71,35,39,14,-5,7,-15,-22,-2,17,3,-49,-69,-31,-14,-56,-76,-30,-11,-47,-58,-36,-8,-30,-53,-14,-4,-31,-15,-24,-26,-18,-28,-35,-11,-24,-39,-25,-14,1,-19,-31,-34,5,11,-30,-22,-18,-5,6,1,9,-21,-37,11,-7,-23,-4,1,14,24,25,-10,-11,-7,-25,-40,-23,18,21,-13,-21,8,11,-35,6,18,-16,10,18,4,3,19,22,-16,-5,3,-7,-10,-11,-15,8,58,84,189,200,16,-17,7,0,21,-8,-23,-33,-23,-16,-3,5,7,12,9,-1,14,31,22,44,17,8,29,65,78,60,69,72,69,54,52,74,79,50,52,37,23,15,9,-12,-36,-21,-30,-37,7,16,-48,-36,-22,-9,-6,-23,-2,-1,-21,-14,-28,-9,-47,-50,15,-11,-61,-63,-14,5,-75,-76,8,-45,-66,-19,-31,-25,-33,-8,-7,-15,-11,-20,17,-26,-32,0,-18,-22,-8,-21,-31,-20,-14,-23,9,19,-14,8,27,-41,-47,33,41,-14,-15,6,12,-6,8,34,30,48,35,23,-1,3,1,15,15,26,-5,-38,25,89,165,212,97,-12,-32,9,15,21,0,23,27,17,31,12,11,59,26,25,36,39,48,27,17,55,60,76,93,103,88,57,74,106,117,89,85,100,105,42,18,27,29,2,-10,-16,-5,-17,18,-24,-47,-18,-19,-14,-38,-9,-3,-33,-44,-3,34,18,7,0,-10,-16,-25,-37,-3,3,-21,-39,-10,4,-13,0,-2,-14,-19,19,-14,-24,-16,18,21,-37,-24,-5,-4,8,12,-23,-28,-2,-16,-18,10,16,-3,-5,0,9,6,41,63,7,-22,1,7,-51,-6,8,6,-4,-7,82,150,160,28,-68,-70,0,8,-46,-15,20,10,-27,-35,7,-32,8,27,-3,20,6,3,16,19,-3,-4,58,19,10,43,69,63,74,79,53,46,58,10,-1,42,50,-25,-16,-25,-26,-20,-40,-46,-16,-27,-49,-51,-12,-3,-19,-28,-6,-23,-14,-3,4,-38,-60,8,21,-22,23,33,-13,2,24,-32,-33,-15,-11,-4,0,4,11,-14,-20,28,-13,-40,-3,0,1,19,28,-30,-11,5,6,-16,-4,2,4,-3,2,-10,16,-4,-17,27,11,8,18,5,-29,-16,-9,-25,-31,10,-6,-7,49,126,162,68,-20,-28,-17,5,-2,-5,19,-3,-11,-9,4,5,7,-9,-15,24,1,0,24,45,25,16,31,51,62,53,54,53,43,60,88,61,47,56,72,56,11,-1,10,-18,-34,26,5,-16,0,-30,-48,5,30,-12,-37,-6,16,-17,-25,12,5,7,-18,9,-3,-10,-4,7,14,6,27,3,-7,-5,12,33,-2,-26,5,12,4,11,0,13,-16,-20,-8,0,4,-22,-5,0,-21,-13,-24,-6,-30,-35,-24,-34,5,-13,-22,8,9,0,8,9,-11,-14,-7,-2,2,-32,-40,0,7,-29,-47,44,82,160,175,36,-78,-20,4,-20,-14,-3,0,-15,-14,-28,22,-12,-19,-26,-31,17,19,13,14,6,40,49,21,47,57,49,47,37,52,104,110,34,57,61,35,-8,22,32,-32,-40,-11,-9,-31,-38,-35,-28,-14,-18,-3,-13,-47,-48,-11,-26,-33,-12,-3,-22,5,-11,-19,-29,-17,-29,-36,-20,-21,-15,-74,-40,-4,7,14,-7,-9,16,19,12,19,1,-1,-7,5,30,6,-11,7,10,25,-1,-8,16,13,25,27,6,-11,18,44,26,2,24,49,21,12,18,-33,0,11,-26,-14,5,-12,11,60,122,191,64,-34,-3,6,-19,-13,1,11,0,-4,8,-28,-4,4,-4,39,23,15,30,12,29,30,37,40,35,72,81,102,70,63,98,105,87,57,47,52,30,0,9,16,-8,-24,-20,-28,-39,-37,-32,-11,-9,-20,-3,0,-10,-9,-19,1,7,-21,8,13,-29,16,-5,-25,-6,-5,-21,-18,-39,0,2,-24,-12,-20,-10,-7,11,-14,-39,-2,10,-36,-1,5,-16,-9,-20,-5,-15,0,-21,-27,9,17,31,19,36,39,22,0,17,25,-3,9,12,17,47,73,139,187,157,47,-14,27,47,36,47,52,2,-11,22,12,6,4,26,8,-8,22,0,-14,29,13,-14,-19,24,35,22,59,65,59,68,60,53,61,47,32,21,4,9,-25,-58,-69,-50,-27,-48,-54,-37,-63,-64,-48,-35,-13,-54,-38,-37,-51,2,4,-29,-52,-6,8,-54,-63,-33,-38,-19,-18,-34,-26,-24,-12,-10,-34,-48,-7,2,-32,-40,-12,-34,-36,-30,-7,-28,-34,-19,-30,18,31,19,-4,-9,30,31,-1,-28,-46,-48,-17,1,7,-27,-58,-62,32,85,140,96,-19,-40,3,6,-21,-26,-37,-42,-52,-59,23,-18,-38,11,24,26,-2,-33,-37,4,-12,3,8,33,40,47,49,39,88,32,45,51,59,26,-6,-11,-16,-20,-36,-68,-49,-43,-68,-52,-40,-85,-56,-26,-48,-60,-71,-53,-46,-55,-51,-52,-33,-48,-62,0,4,-50,-20,-1,-54,-4,14,-12,-14,-1,22,36,47,61,91,88,123,125,101,114,98,102,58,100,115,50,49,103,105,68,61,99,162,206,191,216,224,210,259,204,190,206,153,144,149,134,114,142,102,74,165,242,263,131,54,83,109,75,62,91,70,53,62,67,56,30,20,40,56,68,40,12,50,64,49,84,94,85,79,96,46,64,86,88,49,23,31,32,10,5,-21,-63,-71,-96,-69,-67,-51,-35,-88,-79,-99,-98,-115,-71,-120,-126,-95,-104,-100,-123,-112,-115,-105,-142,-132,-130,-141,-153,-109,-96,-90,-143,-80,-48,-81,-70,-105,-78,-89,-108,-109,-36,-24,-57,-64,-71,-59,-42,-24,-49,-59,-35,-24,-40,-27,-23,-43,-22,-45,-31,-8,29,30,13,31,11,-8,-41,-42,-10,-108,-124,-6,-30,-41,37,88,143,66,-92,-122,-39,-4,17,-2,-7,9,19,40,42,23,29,48,75,85,84,63,28,70,83,57,58,73,92,58,76,81,72,80,112,83,34,76,90,10,-17,-16,-18,8,10,-1,23,-4,-2,-31,-59,-66,-19,6,12,-28,-33,-1,-39,-22,-9,-12,3,-10,-12,-19,-10,15,-12,-28,-12,-46,-52,-58,-39,-27,-19,-30,-32,-27,-34,-35,-28,-47,-72,-23,-5,-26,7,10,34,73,2,-2,46,7,16,37,66,26,-12,27,44,5,58,45,39,50,56,4,-4,13,34,36,4,22,37,19,44,117,160,166,36,-42,13,25,-3,11,-22,-36,5,17,-15,-19,17,-8,-16,32,42,9,4,11,24,31,38,44,17,9,70,75,83,98,54,49,35,57,36,27,46,5,-12,-27,-30,-8,-27,-43,-13,-6,-44,-27,-53,-59,-40,-32,-60,-23,-8,-36,-8,0,-38,-42,-37,-30,-20,-50,-27,5,13,-28,-32,-10,-36,-28,-39,-12,8,-23,-40,-44,-54,-56,-18,5,6,-42,-7,-29,-48,-17,-7,-23,15,10,-8,-10,32,-4,-9,10,9,32,21,0,17,56,62,60,48,62,65,31,64,39,-13,3,26,28,-6,7,10,-10,27,53,167,224,112,7,-24,-1,1,-4,10,-1,-4,6,26,27,8,0,15,-20,11,31,14,24,4,66,71,20,32,54,71,70,91,92,68,98,62,56,47,28,32,20,23,15,-9,-2,-3,11,-24,-35,-2,-22,-47,-39,-5,-2,-14,-5,-10,0,31,-13,-34,-16,-37,0,17,-7,-22,3,8,-2,-17,1,17,-14,-20,-49,-19,-11,-24,-16,-20,-19,-26,-12,-23,-25,-22,-24,-19,-17,0,-22,-36,0,8,-32,-39,15,-36,-50,-15,-29,-32,11,-2,12,21,27,-4,-7,13,32,42,3,-6,15,17,-3,0,-36,-48,-14,-22,48,169,201,69,-25,-31,-4,-25,9,12,-17,-23,12,17,-27,-39,7,-8,-14,37,-3,-21,9,14,25,20,40,43,27,92,93,63,79,93,76,54,51,68,49,-5,-7,37,-21,-40,1,-23,-49,-20,-13,-15,-11,-41,-23,-16,-38,-19,-9,-41,-24,-42,-43,6,-12,-21,-37,-49,-5,-36,-20,0,9,-27,-33,-4,-8,-13,-36,-19,-1,2,10,19,-50,-67,-3,2,22,1,-20,-3,1,-4,-1,12,-9,-29,28,1,-27,6,9,19,31,-33,-17,0,18,16,22,25,16,10,31,8,0,18,-19,-8,-32,-41,13,1,-17,4,30,84,184,189,37,-77,-30,26,36,16,-11,-16,-12,-24,9,21,4,16,2,31,42,27,7,43,50,43,59,40,14,29,78,111,75,59,78,74,45,37,81,52,23,24,0,6,-60,-71,1,10,-10,-19,-4,-24,-33,9,-19,-17,-41,5,-15,-19,10,-34,-1,0,-28,-6,3,-17,-29,28,-4,-5,8,18,-7,-24,22,-38,-59,11,-15,-16,18,-5,-33,-5,1,-16,4,19,-10,-13,-7,-1,10,-1,-15,-27,-38,10,18,-22,0,38,63,15,11,28,10,3,-11,-31,7,10,-31,-21,-10,2,34,100,131,132,-16,-65,-36,-15,19,-3,-25,3,16,-27,13,-12,-19,2,-9,11,26,13,6,29,30,13,31,47,51,36,29,44,58,70,73,73,40,27,41,13,-13,-33,-8,-23,-46,-10,-7,-38,-32,-66,-17,-12,-44,-14,-21,12,13,-40,-46,-12,-11,-22,-9,-5,-28,4,-23,-34,-2,7,-12,-16,-4,-17,9,-6,-5,-19,19,38,-12,-16,9,-3,-11,16,1,-25,-5,0,-18,9,-4,-14,-9,-20,-17,-4,10,-4,8,16,3,11,10,25,9,51,3,-25,1,7,-6,-15,0,-34,10,18,-18,96,153,160,62,-38,-48,12,45,15,-3,5,-8,22,16,9,-4,-9,3,-2,34,53,55,15,10,36,47,48,46,37,49,103,104,50,73,49,68,76,27,26,17,7,0,-8,-28,-9,-3,-54,-56,-23,-13,-27,-12,18,-10,-56,-8,8,-6,-25,-43,9,18,-50,-17,5,-15,-6,-9,2,-26,14,37,-44,-51,6,-22,-5,2,-29,7,26,-44,-20,4,-1,23,-22,-28,-2,-9,-7,17,-4,-31,1,-14,-8,-17,5,16,-16,22,24,1,30,18,40,46,22,42,14,20,7,-2,-34,0,37,-17,-26,-25,-6,58,142,171,74,-23,-28,-16,2,11,-27,-18,-15,-9,-28,-32,-9,-4,-7,13,35,16,5,15,3,0,28,55,65,42,47,48,65,52,63,60,58,38,57,31,18,32,-21,-36,-8,-32,-33,-3,-49,-50,-40,-31,-7,-29,-44,-1,-16,-29,18,27,-32,-57,3,26,-11,-39,-5,4,24,26,-34,-30,-26,-13,9,-16,2,27,7,-26,-27,-4,3,-25,12,19,-42,0,35,3,-18,-34,-5,2,-15,3,2,5,-12,4,-13,-23,16,22,-9,0,14,4,-5,38,40,1,41,1,0,-26,1,18,-37,-18,4,-16,-24,31,115,170,175,10,-47,0,20